"TransVSlowSam7 - RawData"
"Wavelength nm.","T%"
190.00,1.77700
191.00,1.06055
192.00,0.90868
193.00,0.68823
194.00,0.62506
195.00,0.30303
196.00,0.32532
197.00,0.35419
198.00,0.26570
199.00,0.25403
200.00,0.26088
201.00,0.22192
202.00,0.17410
203.00,0.20974
204.00,0.18790
205.00,0.12555
206.00,0.15129
207.00,0.12587
208.00,0.15483
209.00,0.12511
210.00,0.11466
211.00,0.12478
212.00,0.10560
213.00,0.10371
214.00,0.11831
215.00,0.11544
216.00,0.09171
217.00,0.10896
218.00,0.10768
219.00,0.11643
220.00,0.12457
221.00,0.13985
222.00,0.12748
223.00,0.13378
224.00,0.12474
225.00,0.13718
226.00,0.14995
227.00,0.17594
228.00,0.20634
229.00,0.24808
230.00,0.31116
231.00,0.38804
232.00,0.48780
233.00,0.62400
234.00,0.78561
235.00,0.96183
236.00,1.22248
237.00,1.47811
238.00,1.78480
239.00,2.08373
240.00,2.47463
241.00,2.86509
242.00,3.36035
243.00,3.90013
244.00,4.49373
245.00,5.17243
246.00,5.98583
247.00,6.89503
248.00,7.94530
249.00,9.09709
250.00,10.52711
251.00,12.24049
252.00,14.21984
253.00,16.58525
254.00,19.27181
255.00,22.32910
256.00,25.54250
257.00,28.84811
258.00,32.24000
259.00,35.42152
260.00,38.64757
261.00,41.54397
262.00,44.33895
263.00,46.71542
264.00,48.67086
265.00,50.26546
266.00,51.23363
267.00,52.06073
268.00,52.49807
269.00,52.63214
270.00,52.79219
271.00,52.78983
272.00,53.02901
273.00,53.14090
274.00,53.39105
275.00,53.77782
276.00,54.26411
277.00,54.91778
278.00,55.53376
279.00,56.01361
280.00,56.48282
281.00,56.93319
282.00,57.45930
283.00,57.91419
284.00,58.09420
285.00,58.21364
286.00,58.34143
287.00,58.27327
288.00,58.15969
289.00,58.01360
290.00,57.89940
291.00,57.71903
292.00,57.43866
293.00,57.32853
294.00,57.21927
295.00,57.09983
296.00,57.16002
297.00,57.14781
298.00,57.38770
299.00,57.60326
300.00,57.72796
301.00,58.07787
302.00,58.39223
303.00,58.95684
304.00,59.19254
305.00,59.48520
306.00,59.72918
307.00,60.00127
308.00,60.28629
309.00,60.65044
310.00,60.80989
311.00,60.77004
312.00,60.87055
313.00,60.97890
314.00,60.80530
315.00,60.83267
316.00,60.73289
317.00,60.54047
318.00,60.28300
319.00,60.11395
320.00,59.99749
321.00,59.70867
322.00,59.43071
323.00,59.42399
324.00,58.97855
325.00,58.93558
326.00,58.84627
327.00,58.68568
328.00,58.53779
329.00,58.58777
330.00,58.83220
331.00,58.94521
332.00,58.95041
333.00,59.22039
334.00,59.28500
335.00,59.49000
336.00,59.65188
337.00,59.95555
338.00,60.18483
339.00,60.41531
340.00,60.59489
341.00,60.84223
342.00,61.15872
343.00,61.32898
344.00,61.57076
345.00,61.57264
346.00,61.76921
347.00,61.85055
348.00,62.04032
349.00,62.08757
350.00,61.95791
351.00,62.12084
352.00,62.03182
353.00,62.05015
354.00,61.82508
355.00,61.71185
356.00,61.57937
357.00,61.48421
358.00,61.28443
359.00,61.15764
360.00,61.07879
361.00,60.94288
362.00,60.74994
363.00,60.52086
364.00,60.42657
365.00,60.23805
366.00,60.23128
367.00,60.03002
368.00,59.94357
369.00,59.80026
370.00,59.79785
371.00,59.78199
372.00,59.89431
373.00,59.85184
374.00,59.79954
375.00,59.82646
376.00,59.92596
377.00,60.04286
378.00,60.16959
379.00,60.22717
380.00,60.39739
381.00,60.55631
382.00,60.67038
383.00,60.76304
384.00,60.97945
385.00,61.15546
386.00,61.39176
387.00,61.48573
388.00,61.64475
389.00,61.85849
390.00,61.96058
391.00,62.16453
392.00,62.34893
393.00,62.34541
394.00,62.56558
395.00,62.64721
396.00,62.79017
397.00,62.86836
398.00,62.87848
399.00,63.04725
400.00,63.03061
401.00,63.02783
402.00,63.03616
403.00,63.09265
404.00,63.01163
405.00,63.01453
406.00,62.98650
407.00,62.89658
408.00,62.82983
409.00,62.78130
410.00,62.70074
411.00,62.62177
412.00,62.45309
413.00,62.36375
414.00,62.28629
415.00,62.20834
416.00,62.07516
417.00,61.91037
418.00,61.85933
419.00,61.74540
420.00,61.64912
421.00,61.51701
422.00,61.43778
423.00,61.32239
424.00,61.29065
425.00,61.16374
426.00,61.10519
427.00,61.04439
428.00,60.98886
429.00,60.94617
430.00,60.94419
431.00,60.88239
432.00,60.85869
433.00,60.88700
434.00,60.90226
435.00,60.98148
436.00,60.94649
437.00,61.00423
438.00,61.01560
439.00,61.09282
440.00,61.11321
441.00,61.19889
442.00,61.30039
443.00,61.37748
444.00,61.52353
445.00,61.55304
446.00,61.65624
447.00,61.84365
448.00,61.92017
449.00,62.07091
450.00,62.13125
451.00,62.22818
452.00,62.37772
453.00,62.47826
454.00,62.62730
455.00,62.72567
456.00,62.85341
457.00,62.96729
458.00,63.08969
459.00,63.21306
460.00,63.31712
461.00,63.43864
462.00,63.55580
463.00,63.67599
464.00,63.73800
465.00,63.87085
466.00,63.87870
467.00,63.95512
468.00,64.03160
469.00,64.09243
470.00,64.12102
471.00,64.15896
472.00,64.16534
473.00,64.20868
474.00,64.19277
475.00,64.20979
476.00,64.21070
477.00,64.21387
478.00,64.11864
479.00,64.16274
480.00,64.12715
481.00,64.12485
482.00,64.05092
483.00,64.04492
484.00,63.99949
485.00,63.93968
486.00,63.87718
487.00,63.82257
488.00,63.76955
489.00,63.74341
490.00,63.68037
491.00,63.57976
492.00,63.55709
493.00,63.46720
494.00,63.41253
495.00,63.32482
496.00,63.24257
497.00,63.18215
498.00,63.14101
499.00,63.08187
500.00,63.02259
501.00,62.93046
502.00,62.81055
503.00,62.78797
504.00,62.70294
505.00,62.66746
506.00,62.56310
507.00,62.54267
508.00,62.50654
509.00,62.43919
510.00,62.39567
511.00,62.32742
512.00,62.28473
513.00,62.30522
514.00,62.23930
515.00,62.19761
516.00,62.19414
517.00,62.17969
518.00,62.14630
519.00,62.12149
520.00,62.13076
521.00,62.15667
522.00,62.13334
523.00,62.16017
524.00,62.14038
525.00,62.16671
526.00,62.15943
527.00,62.18351
528.00,62.16470
529.00,62.24167
530.00,62.30914
531.00,62.34024
532.00,62.38976
533.00,62.40290
534.00,62.46701
535.00,62.48559
536.00,62.56195
537.00,62.62696
538.00,62.68707
539.00,62.72408
540.00,62.80160
541.00,62.83925
542.00,62.94319
543.00,62.98088
544.00,63.07616
545.00,63.14046
546.00,63.23391
547.00,63.31915
548.00,63.39690
549.00,63.48934
550.00,63.57725
551.00,63.64040
552.00,63.74475
553.00,63.81238
554.00,63.89051
555.00,64.00067
556.00,64.10171
557.00,64.14368
558.00,64.21801
559.00,64.32620
560.00,64.42093
561.00,64.50796
562.00,64.58712
563.00,64.65900
564.00,64.76945
565.00,64.80039
566.00,64.83151
567.00,64.93447
568.00,64.95148
569.00,65.01685
570.00,65.05460
571.00,65.05021
572.00,65.09789
573.00,65.11564
574.00,65.12311
575.00,65.16275
576.00,65.18463
577.00,65.20337
578.00,65.21075
579.00,65.24736
580.00,65.26338
581.00,65.26566
582.00,65.28926
583.00,65.31287
584.00,65.36132
585.00,65.35111
586.00,65.39279
587.00,65.39513
588.00,65.44290
589.00,65.43609
590.00,65.49839
591.00,65.45082
592.00,65.48607
593.00,65.45354
594.00,65.49305
595.00,65.49010
596.00,65.46929
597.00,65.47119
598.00,65.48268
599.00,65.49298
600.00,65.46142
601.00,65.47428
602.00,65.44027
603.00,65.44165
604.00,65.43551
605.00,65.39998
606.00,65.38750
607.00,65.38454
608.00,65.34558
609.00,65.33783
610.00,65.30842
611.00,65.30273
612.00,65.24107
613.00,65.22256
614.00,65.16046
615.00,65.16493
616.00,65.14965
617.00,65.10242
618.00,65.05426
619.00,65.00214
620.00,64.98015
621.00,64.96784
622.00,64.95244
623.00,64.88637
624.00,64.80422
625.00,64.80261
626.00,64.80250
627.00,64.76467
628.00,64.67906
629.00,64.66097
630.00,64.65585
631.00,64.60301
632.00,64.55179
633.00,64.53665
634.00,64.52438
635.00,64.46704
636.00,64.43986
637.00,64.42025
638.00,64.32804
639.00,64.34118
640.00,64.31045
641.00,64.26503
642.00,64.26173
643.00,64.25402
644.00,64.20622
645.00,64.20215
646.00,64.22282
647.00,64.13336
648.00,64.13105
649.00,64.13160
650.00,64.10568
651.00,64.10012
652.00,64.06647
653.00,64.08867
654.00,64.07881
655.00,64.09662
656.00,64.02473
657.00,64.01398
658.00,64.04148
659.00,64.01041
660.00,63.99986
661.00,64.01744
662.00,64.08591
663.00,64.04726
664.00,64.05243
665.00,64.08993
666.00,64.09708
667.00,64.09798
668.00,64.12979
669.00,64.07130
670.00,64.16274
671.00,64.13124
672.00,64.19435
673.00,64.19914
674.00,64.20857
675.00,64.23165
676.00,64.23134
677.00,64.28927
678.00,64.29326
679.00,64.31982
680.00,64.35625
681.00,64.41648
682.00,64.32733
683.00,64.44931
684.00,64.47874
685.00,64.52755
686.00,64.48994
687.00,64.57889
688.00,64.65407
689.00,64.67325
690.00,64.72504
691.00,64.77890
692.00,64.80471
693.00,64.88163
694.00,64.86313
695.00,64.97396
696.00,64.95696
697.00,65.06652
698.00,65.12295
699.00,65.12397
700.00,65.13726
701.00,65.20842
702.00,65.28819
703.00,65.27641
704.00,65.37625
705.00,65.52055
706.00,65.51338
707.00,65.51664
708.00,65.62712
709.00,65.69294
710.00,65.67820
711.00,65.78172
712.00,65.79111
713.00,65.89262
714.00,65.96689
715.00,65.94784
716.00,66.06769
717.00,66.10468
718.00,66.08331
719.00,66.20759
720.00,66.24704
721.00,66.24860
722.00,66.25028
723.00,66.42811
724.00,66.45544
725.00,66.53947
726.00,66.55582
727.00,66.70107
728.00,66.73111
729.00,66.78139
730.00,66.80076
731.00,66.82847
732.00,66.86060
733.00,66.96687
734.00,66.99161
735.00,67.09899
736.00,67.07191
737.00,67.11639
738.00,67.21432
739.00,67.17694
740.00,67.24401
741.00,67.35881
742.00,67.25245
743.00,67.42114
744.00,67.41515
745.00,67.56493
746.00,67.54038
747.00,67.46652
748.00,67.64879
749.00,67.74483
750.00,67.68547
751.00,67.78897
752.00,67.80373
753.00,67.82663
754.00,67.85665
755.00,67.99133
756.00,67.99068
757.00,67.95244
758.00,68.09710
759.00,67.87340
760.00,68.16831
761.00,68.17949
762.00,68.13932
763.00,68.26824
764.00,68.25671
765.00,68.22436
766.00,68.14110
767.00,68.21501
768.00,68.21835
769.00,68.27946
770.00,68.21643
771.00,68.45997
772.00,68.47636
773.00,68.35582
774.00,68.32157
775.00,68.35116
776.00,68.30629
777.00,68.49393
778.00,68.48153
779.00,68.48834
780.00,68.54905
781.00,68.54796
782.00,68.59556
783.00,68.66592
784.00,68.64128
785.00,68.52426
786.00,68.55742
787.00,68.51757
788.00,68.52741
789.00,68.59426
790.00,68.48719
791.00,68.61126
792.00,68.40467
793.00,68.52354
794.00,68.55148
795.00,68.33522
796.00,68.60802
797.00,68.51722
798.00,68.49764
799.00,68.50395
800.00,68.38511
801.00,68.35670
802.00,68.53399
803.00,68.45778
804.00,68.58628
805.00,68.32274
806.00,68.41714
807.00,68.44534
808.00,68.54555
809.00,68.36609
810.00,68.55065
811.00,68.44472
812.00,68.31350
813.00,68.38729
814.00,68.47415
815.00,68.17333
816.00,68.39777
817.00,68.53335
818.00,68.34213
819.00,68.42495
820.00,68.16032
821.00,68.42983
822.00,68.44110
823.00,67.90704
824.00,68.26316
825.00,68.16995
826.00,68.25662
827.00,67.98567
828.00,68.13433
829.00,68.03280
830.00,67.95897
831.00,68.04653
832.00,68.14749
833.00,67.96358
834.00,68.22396
835.00,68.01365
836.00,67.61572
837.00,68.13126
838.00,67.76943
839.00,68.06518
840.00,67.98687
841.00,67.53929
842.00,67.95651
843.00,67.89744
844.00,67.80690
845.00,67.91785
846.00,67.52108
847.00,67.80910
848.00,67.93358
849.00,67.93475
850.00,67.53396
851.00,67.61478
852.00,67.97028
853.00,67.45925
854.00,68.08532
855.00,67.12998
856.00,67.07385
857.00,67.11016
858.00,67.26239
859.00,68.34584
860.00,67.49876
861.00,66.99432
862.00,67.86405
863.00,67.29624
864.00,66.97677
865.00,65.75512
866.00,67.41455
867.00,67.48274
868.00,67.65669
869.00,67.32037
870.00,68.30467
871.00,68.09252
872.00,67.55380
873.00,69.45639
874.00,68.50231
875.00,67.78911
876.00,68.68250
877.00,67.57693
878.00,67.84450
879.00,68.19571
880.00,65.95919
881.00,64.86708
882.00,67.61234
883.00,67.65980
884.00,67.34396
885.00,64.88417
886.00,66.05870
887.00,68.99863
888.00,70.47060
889.00,63.20926
890.00,66.12818
891.00,71.08598
892.00,66.63144
893.00,65.96918
894.00,64.80786
895.00,69.26573
896.00,65.15660
897.00,65.55905
898.00,65.15088
899.00,67.29614
900.00,70.82155
