"PlainMix - RawData"
"Wavelength nm.","T%"
190.00,1.86625
191.00,1.64248
192.00,2.40733
193.00,0.68482
194.00,0.31307
195.00,0.45533
196.00,0.33996
197.00,0.11019
198.00,0.32446
199.00,0.18075
200.00,0.15907
201.00,0.06074
202.00,0.21366
203.00,0.19294
204.00,0.03313
205.00,0.23198
206.00,0.13583
207.00,0.06100
208.00,0.08810
209.00,0.05207
210.00,0.07241
211.00,0.07063
212.00,0.08621
213.00,0.12538
214.00,0.08878
215.00,0.05336
216.00,0.05159
217.00,0.03901
218.00,0.09828
219.00,0.01962
220.00,0.06267
221.00,0.07613
222.00,0.09394
223.00,0.08437
224.00,0.09965
225.00,0.06504
226.00,0.10096
227.00,0.08648
228.00,0.11419
229.00,0.17631
230.00,0.25189
231.00,0.28815
232.00,0.40010
233.00,0.48086
234.00,0.65365
235.00,0.75704
236.00,0.94168
237.00,1.19347
238.00,1.35597
239.00,1.71363
240.00,2.05557
241.00,2.41562
242.00,2.72349
243.00,3.23611
244.00,3.69255
245.00,4.25004
246.00,4.89761
247.00,5.76287
248.00,6.65190
249.00,7.80560
250.00,8.98624
251.00,10.52153
252.00,12.21185
253.00,14.30170
254.00,16.82030
255.00,19.34863
256.00,22.14022
257.00,24.94856
258.00,27.78369
259.00,30.37619
260.00,32.73545
261.00,35.12593
262.00,36.98499
263.00,38.84541
264.00,39.92271
265.00,41.27190
266.00,41.81500
267.00,42.27558
268.00,42.64337
269.00,42.56728
270.00,42.67400
271.00,42.43540
272.00,42.67808
273.00,42.96016
274.00,42.60575
275.00,42.76569
276.00,42.92800
277.00,43.24352
278.00,43.68715
279.00,43.97449
280.00,44.66264
281.00,44.78420
282.00,45.31616
283.00,45.59417
284.00,45.73357
285.00,45.72206
286.00,46.06389
287.00,45.98202
288.00,46.07786
289.00,46.01577
290.00,45.89600
291.00,45.80578
292.00,45.97402
293.00,45.83086
294.00,45.66911
295.00,45.50725
296.00,45.54603
297.00,45.56056
298.00,45.40936
299.00,45.54178
300.00,46.01495
301.00,46.18114
302.00,46.13072
303.00,46.50282
304.00,46.98511
305.00,46.99942
306.00,47.53821
307.00,47.46239
308.00,47.64064
309.00,47.82012
310.00,47.89592
311.00,48.49351
312.00,48.27343
313.00,48.97634
314.00,48.50560
315.00,48.41266
316.00,48.79256
317.00,48.87803
318.00,48.23684
319.00,48.13972
320.00,48.39348
321.00,48.10566
322.00,48.22698
323.00,47.84489
324.00,47.41513
325.00,46.90163
326.00,47.16726
327.00,47.04321
328.00,46.87623
329.00,47.13675
330.00,46.81096
331.00,47.08007
332.00,47.07391
333.00,47.33938
334.00,47.27468
335.00,47.39624
336.00,47.56365
337.00,47.76299
338.00,47.87766
339.00,48.07672
340.00,48.05404
341.00,48.37081
342.00,48.51105
343.00,48.69162
344.00,48.90589
345.00,49.03480
346.00,49.18653
347.00,49.42852
348.00,49.56068
349.00,49.69413
350.00,49.57795
351.00,49.52617
352.00,49.85705
353.00,49.73461
354.00,49.73120
355.00,49.43929
356.00,49.53891
357.00,49.59122
358.00,49.20508
359.00,49.43751
360.00,49.33216
361.00,49.09565
362.00,49.11592
363.00,48.98445
364.00,48.78631
365.00,48.76700
366.00,48.66956
367.00,48.77212
368.00,48.68277
369.00,48.75761
370.00,48.54027
371.00,48.36976
372.00,48.31051
373.00,48.39314
374.00,48.27920
375.00,48.25598
376.00,48.31846
377.00,48.61756
378.00,48.53546
379.00,48.67493
380.00,48.81735
381.00,48.85628
382.00,49.11112
383.00,49.05854
384.00,49.12893
385.00,49.41708
386.00,49.34488
387.00,49.62401
388.00,49.63779
389.00,49.92411
390.00,49.95520
391.00,50.21011
392.00,50.34479
393.00,50.35917
394.00,50.68208
395.00,50.49827
396.00,50.76377
397.00,50.76019
398.00,50.90789
399.00,50.91658
400.00,51.10950
401.00,51.05830
402.00,51.12476
403.00,51.18335
404.00,51.17515
405.00,51.24255
406.00,51.25036
407.00,51.14930
408.00,51.17883
409.00,51.16739
410.00,51.11526
411.00,50.98937
412.00,51.01443
413.00,50.89291
414.00,50.70600
415.00,50.88030
416.00,50.66199
417.00,50.67095
418.00,50.51486
419.00,50.43883
420.00,50.40040
421.00,50.38297
422.00,50.41232
423.00,50.21886
424.00,50.20347
425.00,50.19603
426.00,50.00159
427.00,49.99607
428.00,49.95971
429.00,49.89474
430.00,49.84614
431.00,49.97508
432.00,49.83457
433.00,49.89475
434.00,49.83876
435.00,49.84721
436.00,49.91145
437.00,49.92386
438.00,49.86373
439.00,49.90671
440.00,50.00964
441.00,50.07377
442.00,50.03368
443.00,50.15821
444.00,50.23397
445.00,50.24939
446.00,50.32172
447.00,50.45953
448.00,50.45433
449.00,50.62626
450.00,50.70804
451.00,50.81083
452.00,50.96340
453.00,50.94863
454.00,51.13901
455.00,51.18651
456.00,51.22851
457.00,51.35080
458.00,51.42428
459.00,51.67961
460.00,51.66359
461.00,51.69761
462.00,51.74957
463.00,51.87584
464.00,51.98489
465.00,52.07379
466.00,52.05896
467.00,52.25880
468.00,52.31658
469.00,52.36550
470.00,52.46053
471.00,52.50452
472.00,52.52744
473.00,52.56118
474.00,52.60586
475.00,52.65476
476.00,52.61668
477.00,52.61700
478.00,52.63517
479.00,52.67294
480.00,52.68075
481.00,52.75086
482.00,52.70920
483.00,52.71972
484.00,52.73409
485.00,52.63964
486.00,52.68208
487.00,52.57868
488.00,52.54383
489.00,52.59653
490.00,52.49350
491.00,52.56572
492.00,52.47551
493.00,52.42465
494.00,52.36844
495.00,52.33459
496.00,52.28030
497.00,52.13733
498.00,52.18827
499.00,52.14081
500.00,52.07628
501.00,52.07794
502.00,52.01795
503.00,51.95572
504.00,51.91837
505.00,51.84897
506.00,51.80157
507.00,51.77007
508.00,51.68435
509.00,51.63865
510.00,51.68206
511.00,51.60387
512.00,51.54014
513.00,51.50244
514.00,51.57005
515.00,51.42629
516.00,51.51759
517.00,51.41971
518.00,51.42762
519.00,51.34251
520.00,51.50754
521.00,51.39446
522.00,51.39163
523.00,51.30091
524.00,51.38082
525.00,51.46435
526.00,51.40085
527.00,51.44884
528.00,51.50092
529.00,51.51319
530.00,51.53496
531.00,51.44608
532.00,51.53986
533.00,51.60486
534.00,51.66896
535.00,51.73224
536.00,51.70286
537.00,51.74230
538.00,51.79079
539.00,51.82199
540.00,51.85008
541.00,51.88301
542.00,51.92836
543.00,52.02193
544.00,52.08305
545.00,52.21499
546.00,52.26094
547.00,52.29003
548.00,52.28993
549.00,52.50725
550.00,52.49474
551.00,52.50540
552.00,52.60673
553.00,52.66600
554.00,52.82550
555.00,52.87059
556.00,53.00418
557.00,52.96615
558.00,53.08591
559.00,53.15489
560.00,53.17130
561.00,53.26853
562.00,53.26891
563.00,53.31475
564.00,53.47410
565.00,53.49537
566.00,53.51085
567.00,53.55060
568.00,53.73260
569.00,53.70778
570.00,53.90099
571.00,53.77015
572.00,54.01098
573.00,53.91304
574.00,53.95588
575.00,54.02355
576.00,54.15337
577.00,54.13849
578.00,54.24522
579.00,54.22891
580.00,54.30759
581.00,54.31662
582.00,54.37265
583.00,54.46373
584.00,54.46975
585.00,54.46458
586.00,54.47097
587.00,54.53433
588.00,54.57430
589.00,54.49185
590.00,54.62855
591.00,54.58444
592.00,54.61021
593.00,54.63802
594.00,54.58080
595.00,54.62871
596.00,54.66162
597.00,54.64155
598.00,54.66783
599.00,54.68677
600.00,54.73359
601.00,54.61969
602.00,54.64311
603.00,54.63944
604.00,54.55065
605.00,54.63843
606.00,54.58286
607.00,54.55233
608.00,54.61007
609.00,54.47609
610.00,54.53575
611.00,54.46660
612.00,54.54651
613.00,54.37575
614.00,54.52380
615.00,54.41869
616.00,54.44109
617.00,54.37133
618.00,54.33181
619.00,54.27362
620.00,54.27389
621.00,54.29560
622.00,54.24678
623.00,54.09091
624.00,54.10321
625.00,54.15162
626.00,54.03119
627.00,54.15189
628.00,54.11563
629.00,54.02977
630.00,54.01486
631.00,53.89271
632.00,54.02355
633.00,53.93209
634.00,54.00723
635.00,53.93571
636.00,53.84756
637.00,53.83201
638.00,53.81907
639.00,53.63843
640.00,53.78162
641.00,53.67634
642.00,53.69107
643.00,53.65791
644.00,53.69654
645.00,53.68477
646.00,53.68829
647.00,53.64558
648.00,53.52353
649.00,53.63591
650.00,53.60754
651.00,53.53392
652.00,53.63563
653.00,53.56305
654.00,53.55471
655.00,53.65288
656.00,53.50063
657.00,53.57276
658.00,53.50673
659.00,53.54092
660.00,53.54742
661.00,53.56632
662.00,53.54443
663.00,53.48527
664.00,53.64060
665.00,53.51244
666.00,53.60532
667.00,53.42199
668.00,53.43926
669.00,53.37495
670.00,53.44582
671.00,53.61959
672.00,53.59783
673.00,53.75515
674.00,53.58820
675.00,53.64812
676.00,53.62313
677.00,53.81266
678.00,53.72228
679.00,53.75865
680.00,53.93579
681.00,53.82379
682.00,53.91157
683.00,53.97112
684.00,53.86041
685.00,54.04525
686.00,53.77772
687.00,54.04647
688.00,53.95251
689.00,53.83365
690.00,54.13596
691.00,53.94617
692.00,54.05860
693.00,54.07133
694.00,54.18959
695.00,54.26044
696.00,54.27213
697.00,54.33866
698.00,54.35972
699.00,54.47938
700.00,54.43206
701.00,54.39625
702.00,54.44240
703.00,54.51476
704.00,54.86020
705.00,54.81809
706.00,54.70297
707.00,54.74908
708.00,54.86315
709.00,54.96251
710.00,54.95074
711.00,54.87791
712.00,54.98634
713.00,55.00668
714.00,55.15099
715.00,55.24300
716.00,55.25341
717.00,55.29419
718.00,55.20634
719.00,55.31737
720.00,55.42825
721.00,55.48381
722.00,55.51342
723.00,55.40175
724.00,55.64670
725.00,55.47792
726.00,55.55393
727.00,55.71677
728.00,55.83175
729.00,55.67772
730.00,55.83652
731.00,55.93060
732.00,55.96998
733.00,56.13713
734.00,55.91143
735.00,56.10496
736.00,56.17166
737.00,56.21438
738.00,56.24179
739.00,56.09629
740.00,56.33972
741.00,56.40088
742.00,56.30619
743.00,56.53231
744.00,56.53030
745.00,56.40898
746.00,56.52525
747.00,56.64473
748.00,56.37369
749.00,56.64247
750.00,56.54767
751.00,56.94862
752.00,56.92356
753.00,56.73130
754.00,56.89585
755.00,56.66019
756.00,57.09191
757.00,56.80148
758.00,56.76017
759.00,56.88089
760.00,56.75219
761.00,57.01043
762.00,56.93061
763.00,57.09013
764.00,57.08669
765.00,57.06552
766.00,57.29892
767.00,57.45659
768.00,57.41172
769.00,57.05836
770.00,57.36800
771.00,56.85214
772.00,57.45997
773.00,56.86565
774.00,57.38923
775.00,57.56495
776.00,57.10727
777.00,57.29377
778.00,57.39135
779.00,57.57970
780.00,57.25164
781.00,57.25112
782.00,57.68757
783.00,57.52072
784.00,57.41675
785.00,57.35639
786.00,57.47674
787.00,57.53206
788.00,57.63192
789.00,57.53052
790.00,57.70340
791.00,57.54130
792.00,57.42090
793.00,57.72067
794.00,57.54583
795.00,57.71716
796.00,57.48352
797.00,57.78262
798.00,57.46634
799.00,57.66559
800.00,57.47406
801.00,57.61746
802.00,57.65089
803.00,57.65654
804.00,57.60249
805.00,57.24894
806.00,57.57782
807.00,57.83315
808.00,57.31407
809.00,57.58454
810.00,57.65055
811.00,57.14138
812.00,57.74277
813.00,57.60762
814.00,57.23986
815.00,57.45310
816.00,57.46763
817.00,57.21047
818.00,57.70968
819.00,56.87951
820.00,57.45311
821.00,57.33503
822.00,57.80040
823.00,57.45685
824.00,57.57422
825.00,57.52057
826.00,57.26857
827.00,57.91003
828.00,57.60716
829.00,57.87997
830.00,56.97069
831.00,57.34826
832.00,57.34845
833.00,57.64649
834.00,56.71319
835.00,57.23211
836.00,56.99643
837.00,56.94764
838.00,56.90393
839.00,57.48966
840.00,56.52729
841.00,57.81403
842.00,56.73502
843.00,56.10588
844.00,58.07174
845.00,58.02132
846.00,56.78796
847.00,58.28501
848.00,56.43148
849.00,57.68759
850.00,56.79032
851.00,58.16934
852.00,57.36567
853.00,58.54884
854.00,56.66257
855.00,57.59243
856.00,58.55486
857.00,57.15727
858.00,55.77295
859.00,57.37731
860.00,57.66992
861.00,56.81412
862.00,57.57716
863.00,54.43336
864.00,55.56433
865.00,56.95497
866.00,55.79308
867.00,55.60170
868.00,55.33636
869.00,57.69866
870.00,52.82229
871.00,59.94475
872.00,58.91863
873.00,59.81504
874.00,61.74281
875.00,56.57477
876.00,57.01168
877.00,54.26652
878.00,54.38126
879.00,60.98821
880.00,56.97726
881.00,56.02233
882.00,53.25559
883.00,49.95849
884.00,62.64266
885.00,56.03216
886.00,54.92077
887.00,63.30406
888.00,54.04874
889.00,50.03407
890.00,54.20337
891.00,56.09583
892.00,68.03030
893.00,53.18325
894.00,53.71793
895.00,50.47806
896.00,53.61989
897.00,60.52127
898.00,48.95747
899.00,64.24602
900.00,54.42711
