"Sample9Vslow - RawData"
"Wavelength nm.","T%"
200.00,0.13428
200.20,0.14532
200.40,0.15526
200.60,0.15576
200.80,0.17279
201.00,0.16018
201.20,0.17122
201.40,0.16672
201.60,0.17844
201.80,0.17478
202.00,0.17799
202.20,0.16685
202.40,0.17134
202.60,0.17068
202.80,0.16637
203.00,0.17418
203.20,0.16690
203.40,0.16980
203.60,0.16569
203.80,0.16108
204.00,0.15590
204.20,0.16023
204.40,0.14580
204.60,0.14027
204.80,0.14525
205.00,0.13745
205.20,0.13085
205.40,0.13390
205.60,0.13151
205.80,0.13294
206.00,0.14142
206.20,0.14393
206.40,0.13886
206.60,0.13720
206.80,0.13333
207.00,0.14121
207.20,0.13161
207.40,0.13897
207.60,0.14171
207.80,0.12909
208.00,0.11047
208.20,0.10631
208.40,0.10044
208.60,0.09854
208.80,0.10275
209.00,0.10885
209.20,0.11839
209.40,0.11727
209.60,0.11492
209.80,0.11610
210.00,0.10790
210.20,0.10659
210.40,0.10930
210.60,0.11195
210.80,0.11742
211.00,0.12093
211.20,0.12125
211.40,0.11606
211.60,0.11330
211.80,0.10642
212.00,0.10492
212.20,0.09878
212.40,0.09905
212.60,0.10181
212.80,0.10070
213.00,0.09998
213.20,0.10327
213.40,0.10794
213.60,0.11017
213.80,0.11303
214.00,0.11086
214.20,0.10882
214.40,0.10891
214.60,0.10378
214.80,0.10613
215.00,0.11259
215.20,0.11704
215.40,0.10717
215.60,0.10948
215.80,0.10836
216.00,0.10478
216.20,0.10225
216.40,0.11370
216.60,0.11468
216.80,0.11831
217.00,0.12287
217.20,0.12782
217.40,0.12719
217.60,0.12353
217.80,0.12051
218.00,0.12122
218.20,0.11603
218.40,0.11296
218.60,0.11298
218.80,0.10676
219.00,0.10873
219.20,0.11490
219.40,0.11272
219.60,0.11419
219.80,0.12023
220.00,0.11341
220.20,0.11334
220.40,0.11659
220.60,0.11168
220.80,0.11408
221.00,0.11928
221.20,0.11442
221.40,0.11529
221.60,0.12096
221.80,0.12532
222.00,0.12345
222.20,0.12634
222.40,0.12668
222.60,0.12529
222.80,0.12146
223.00,0.12035
223.20,0.12190
223.40,0.12107
223.60,0.12318
223.80,0.12513
224.00,0.12759
224.20,0.12930
224.40,0.13370
224.60,0.13749
224.80,0.13905
225.00,0.14137
225.20,0.14114
225.40,0.14365
225.60,0.13850
225.80,0.13935
226.00,0.14460
226.20,0.14616
226.40,0.14612
226.60,0.15382
226.80,0.15328
227.00,0.14833
227.20,0.14268
227.40,0.14217
227.60,0.13697
227.80,0.13651
228.00,0.13691
228.20,0.14067
228.40,0.13903
228.60,0.13385
228.80,0.13029
229.00,0.12992
229.20,0.12945
229.40,0.12270
229.60,0.12986
229.80,0.13085
230.00,0.12766
230.20,0.12842
230.40,0.12703
230.60,0.12536
230.80,0.12036
231.00,0.12460
231.20,0.12225
231.40,0.12836
231.60,0.12639
231.80,0.13016
232.00,0.12707
232.20,0.13176
232.40,0.12876
232.60,0.12901
232.80,0.12780
233.00,0.12646
233.20,0.12284
233.40,0.12438
233.60,0.12518
233.80,0.12858
234.00,0.13446
234.20,0.13904
234.40,0.13960
234.60,0.13995
234.80,0.13781
235.00,0.13731
235.20,0.13231
235.40,0.13490
235.60,0.13928
235.80,0.14455
236.00,0.14720
236.20,0.15594
236.40,0.16523
236.60,0.17060
236.80,0.17846
237.00,0.18488
237.20,0.18886
237.40,0.19209
237.60,0.19841
237.80,0.20245
238.00,0.21260
238.20,0.22078
238.40,0.22481
238.60,0.23281
238.80,0.24360
239.00,0.24932
239.20,0.25723
239.40,0.27055
239.60,0.28018
239.80,0.28758
240.00,0.29814
240.20,0.30696
240.40,0.31763
240.60,0.33077
240.80,0.34536
241.00,0.36023
241.20,0.37778
241.40,0.39456
241.60,0.41122
241.80,0.42595
242.00,0.44469
242.20,0.46224
242.40,0.47996
242.60,0.49985
242.80,0.52047
243.00,0.53798
243.20,0.56210
243.40,0.58148
243.60,0.60513
243.80,0.62896
244.00,0.65430
244.20,0.67680
244.40,0.70592
244.60,0.73072
244.80,0.75632
245.00,0.78376
245.20,0.81237
245.40,0.83733
245.60,0.86862
245.80,0.90173
246.00,0.93502
246.20,0.96985
246.40,1.00636
246.60,1.03943
246.80,1.07482
247.00,1.11207
247.20,1.15281
247.40,1.19609
247.60,1.24042
247.80,1.28907
248.00,1.34218
248.20,1.38965
248.40,1.44318
248.60,1.49809
248.80,1.55671
249.00,1.60900
249.20,1.66753
249.40,1.73055
249.60,1.79629
249.80,1.86189
250.00,1.93666
250.20,2.01604
250.40,2.09952
250.60,2.18787
250.80,2.28207
251.00,2.38297
251.20,2.48609
251.40,2.59369
251.60,2.70889
251.80,2.83325
252.00,2.96594
252.20,3.10827
252.40,3.26758
252.60,3.43999
252.80,3.62158
253.00,3.81771
253.20,4.02961
253.40,4.24923
253.60,4.48495
253.80,4.73027
254.00,4.98824
254.20,5.27194
254.40,5.57403
254.60,5.89309
254.80,6.24540
255.00,6.62054
255.20,7.00929
255.40,7.42737
255.60,7.86815
255.80,8.32838
256.00,8.81266
256.20,9.32186
256.40,9.84067
256.60,10.39839
256.80,10.97834
257.00,11.58464
257.20,12.20891
257.40,12.86235
257.60,13.52309
257.80,14.19565
258.00,14.89042
258.20,15.59236
258.40,16.30899
258.60,17.04868
258.80,17.79409
259.00,18.56362
259.20,19.34956
259.40,20.14795
259.60,20.93985
259.80,21.74501
260.00,22.53306
260.20,23.33324
260.40,24.12016
260.60,24.91098
260.80,25.70551
261.00,26.47461
261.20,27.25529
261.40,28.02458
261.60,28.77309
261.80,29.48575
262.00,30.19566
262.20,30.86193
262.40,31.49906
262.60,32.12793
262.80,32.73092
263.00,33.30825
263.20,33.85190
263.40,34.39423
263.60,34.89425
263.80,35.40914
264.00,35.91989
264.20,36.43357
264.40,36.91663
264.60,37.43066
264.80,37.92563
265.00,38.41253
265.20,38.88834
265.40,39.38726
265.60,39.85842
265.80,40.33374
266.00,40.81167
266.20,41.28038
266.40,41.74727
266.60,42.18872
266.80,42.60828
267.00,43.00252
267.20,43.38220
267.40,43.71429
267.60,44.01939
267.80,44.30039
268.00,44.54977
268.20,44.77727
268.40,44.95869
268.60,45.12085
268.80,45.24758
269.00,45.35557
269.20,45.45318
269.40,45.57694
269.60,45.70299
269.80,45.79162
270.00,45.93382
270.20,46.04858
270.40,46.14493
270.60,46.29183
270.80,46.48660
271.00,46.65913
271.20,46.87830
271.40,47.13101
271.60,47.36976
271.80,47.62858
272.00,47.89908
272.20,48.17366
272.40,48.46115
272.60,48.73712
272.80,49.02795
273.00,49.28283
273.20,49.53005
273.40,49.76593
273.60,49.97618
273.80,50.18248
274.00,50.37699
274.20,50.54614
274.40,50.68229
274.60,50.79537
274.80,50.85199
275.00,50.90830
275.20,50.91128
275.40,50.91546
275.60,50.90300
275.80,50.88681
276.00,50.83035
276.20,50.80981
276.40,50.77344
276.60,50.72553
276.80,50.70837
277.00,50.68052
277.20,50.66293
277.40,50.63043
277.60,50.63807
277.80,50.63632
278.00,50.70777
278.20,50.77590
278.40,50.89046
278.60,51.01429
278.80,51.17686
279.00,51.31254
279.20,51.47523
279.40,51.66372
279.60,51.85438
279.80,52.06206
280.00,52.29847
280.20,52.52808
280.40,52.73812
280.60,52.97104
280.80,53.17054
281.00,53.34654
281.20,53.54989
281.40,53.72913
281.60,53.88014
281.80,54.00715
282.00,54.11447
282.20,54.19328
282.40,54.24882
282.60,54.29066
282.80,54.31979
283.00,54.30713
283.20,54.29522
283.40,54.24990
283.60,54.21112
283.80,54.14157
284.00,54.09145
284.20,53.99529
284.40,53.93078
284.60,53.84380
284.80,53.76220
285.00,53.69536
285.20,53.62238
285.40,53.56272
285.60,53.49342
285.80,53.46157
286.00,53.44165
286.20,53.45080
286.40,53.45521
286.60,53.48689
286.80,53.54884
287.00,53.60458
287.20,53.66749
287.40,53.79398
287.60,53.92617
287.80,54.04441
288.00,54.21659
288.20,54.39832
288.40,54.54775
288.60,54.73133
288.80,54.93448
289.00,55.12174
289.20,55.30335
289.40,55.48437
289.60,55.65749
289.80,55.80711
290.00,55.96520
290.20,56.09918
290.40,56.27218
290.60,56.40495
290.80,56.52519
291.00,56.61260
291.20,56.72563
291.40,56.77094
291.60,56.83137
291.80,56.86319
292.00,56.89518
292.20,56.86836
292.40,56.84168
292.60,56.77876
292.80,56.71127
293.00,56.61551
293.20,56.53362
293.40,56.43210
293.60,56.34596
293.80,56.25054
294.00,56.18893
294.20,56.07493
294.40,55.97225
294.60,55.88615
294.80,55.80499
295.00,55.67775
295.20,55.63968
295.40,55.57466
295.60,55.51248
295.80,55.47646
296.00,55.44962
296.20,55.44259
296.40,55.44228
296.60,55.46291
296.80,55.50426
297.00,55.57584
297.20,55.65221
297.40,55.75727
297.60,55.88566
297.80,56.00298
298.00,56.11936
298.20,56.23645
298.40,56.39011
298.60,56.53859
298.80,56.66677
299.00,56.83552
299.20,56.98304
299.40,57.13939
299.60,57.30516
299.80,57.48065
300.00,57.65972
300.20,57.81984
300.40,57.92944
300.60,58.02534
300.80,58.13283
301.00,58.19401
301.20,58.24614
301.40,58.34196
301.60,58.39040
301.80,58.39806
302.00,58.39690
302.20,58.40948
302.40,58.35865
302.60,58.32597
302.80,58.27167
303.00,58.20315
303.20,58.11310
303.40,58.02453
303.60,57.90945
303.80,57.81515
304.00,57.68949
304.20,57.59935
304.40,57.47498
304.60,57.37215
304.80,57.24134
305.00,57.16114
305.20,57.06176
305.40,56.96089
305.60,56.84016
305.80,56.74995
306.00,56.65740
306.20,56.53887
306.40,56.46150
306.60,56.40478
306.80,56.41729
307.00,56.39866
307.20,56.43271
307.40,56.49339
307.60,56.54771
307.80,56.56713
308.00,56.61750
308.20,56.68793
308.40,56.75309
308.60,56.82526
308.80,56.90936
309.00,57.02516
309.20,57.13154
309.40,57.23985
309.60,57.35587
309.80,57.48332
310.00,57.60326
310.20,57.70702
310.40,57.86383
310.60,58.02827
310.80,58.17256
311.00,58.32080
311.20,58.44812
311.40,58.55514
311.60,58.64927
311.80,58.73385
312.00,58.81486
312.20,58.93474
312.40,59.01075
312.60,59.09951
312.80,59.15745
313.00,59.24163
313.20,59.23099
313.40,59.25198
313.60,59.24215
313.80,59.25153
314.00,59.20967
314.20,59.18440
314.40,59.12768
314.60,59.09187
314.80,59.02439
315.00,58.92037
315.20,58.84243
315.40,58.74901
315.60,58.62871
315.80,58.51693
316.00,58.42586
316.20,58.32714
316.40,58.25657
316.60,58.15157
316.80,58.07819
317.00,57.99155
317.20,57.90147
317.40,57.76271
317.60,57.65769
317.80,57.57827
318.00,57.47896
318.20,57.41922
318.40,57.39229
318.60,57.37453
318.80,57.28951
319.00,57.24909
319.20,57.20587
319.40,57.18678
319.60,57.16976
319.80,57.18715
320.00,57.23657
320.20,57.26305
320.40,57.28838
320.60,57.33042
320.80,57.39374
321.00,57.46915
321.20,57.58693
321.40,57.66880
321.60,57.77204
321.80,57.85778
322.00,57.95829
322.20,58.04856
322.40,58.15904
322.60,58.25493
322.80,58.36365
323.00,58.46097
323.20,58.56306
323.40,58.66617
323.60,58.77094
323.80,58.89359
324.00,58.99320
324.20,59.08668
324.40,59.20459
324.60,59.30272
324.80,59.38479
325.00,59.46534
325.20,59.51521
325.40,59.54807
325.60,59.60078
325.80,59.66377
326.00,59.67888
326.20,59.71628
326.40,59.75757
326.60,59.73820
326.80,59.72188
327.00,59.71485
327.20,59.70476
327.40,59.65015
327.60,59.62750
327.80,59.59067
328.00,59.55246
328.20,59.47509
328.40,59.38932
328.60,59.32407
328.80,59.23560
329.00,59.13442
329.20,59.03333
329.40,58.98952
329.60,58.88496
329.80,58.79227
330.00,58.68827
330.20,58.60783
330.40,58.52406
330.60,58.40800
330.80,58.31227
331.00,58.25337
331.20,58.18511
331.40,58.06521
331.60,58.04541
331.80,57.97883
332.00,57.89808
332.20,57.84052
332.40,57.79817
332.60,57.74286
332.80,57.71290
333.00,57.70835
333.20,57.70122
333.40,57.70978
333.60,57.71824
333.80,57.72862
334.00,57.74879
334.20,57.76274
334.40,57.81503
334.60,57.87556
334.80,57.92742
335.00,57.97675
335.20,58.05836
335.40,58.14451
335.60,58.19738
335.80,58.28354
336.00,58.37213
336.20,58.47572
336.40,58.53184
336.60,58.63812
336.80,58.73697
337.00,58.86576
337.20,58.96405
337.40,59.10783
337.60,59.24140
337.80,59.34706
338.00,59.44309
338.20,59.53593
338.40,59.58488
338.60,59.65881
338.80,59.75427
339.00,59.79693
339.20,59.86131
339.40,59.95722
339.60,60.02524
339.80,60.07664
340.00,60.16114
340.20,60.21816
340.40,60.24131
340.60,60.22267
340.80,60.25206
341.00,60.25628
341.20,60.24798
341.40,60.25891
341.60,60.28004
341.80,60.25850
342.00,60.23115
342.20,60.18846
342.40,60.15022
342.60,60.09736
342.80,60.02058
343.00,59.95989
343.20,59.91448
343.40,59.83907
343.60,59.77611
343.80,59.71652
344.00,59.64852
344.20,59.56819
344.40,59.45280
344.60,59.35321
344.80,59.26222
345.00,59.15372
345.20,59.05513
345.40,59.00366
345.60,58.92908
345.80,58.83068
346.00,58.75483
346.20,58.68502
346.40,58.60238
346.60,58.54024
346.80,58.47045
347.00,58.40389
347.20,58.33089
347.40,58.26886
347.60,58.18473
347.80,58.15729
348.00,58.11865
348.20,58.09014
348.40,58.08613
348.60,58.07999
348.80,58.06175
349.00,58.08013
349.20,58.09853
349.40,58.09961
349.60,58.14812
349.80,58.17033
350.00,58.20947
350.20,58.24625
350.40,58.31302
350.60,58.34918
350.80,58.42974
351.00,58.48659
351.20,58.57481
351.40,58.63411
351.60,58.72028
351.80,58.80937
352.00,58.88801
352.20,58.98820
352.40,59.09210
352.60,59.18514
352.80,59.28262
353.00,59.38927
353.20,59.47777
353.40,59.55555
353.60,59.64850
353.80,59.74854
354.00,59.82835
354.20,59.90505
354.40,60.02328
354.60,60.12108
354.80,60.17194
355.00,60.26903
355.20,60.34029
355.40,60.38435
355.60,60.44329
355.80,60.50572
356.00,60.56379
356.20,60.60851
356.40,60.65908
356.60,60.69045
356.80,60.73355
357.00,60.76272
357.20,60.80012
357.40,60.81469
357.60,60.81390
357.80,60.80538
358.00,60.76789
358.20,60.73383
358.40,60.71514
358.60,60.68673
358.80,60.66569
359.00,60.63856
359.20,60.60125
359.40,60.55536
359.60,60.51171
359.80,60.46142
360.00,60.40975
360.20,60.34935
360.40,60.26956
360.60,60.19228
360.80,60.09096
361.00,59.99601
361.20,59.92033
361.40,59.84524
361.60,59.77744
361.80,59.71010
362.00,59.64471
362.20,59.53696
362.40,59.45858
362.60,59.38134
362.80,59.30143
363.00,59.21932
363.20,59.15802
363.40,59.09155
363.60,59.02536
363.80,58.97496
364.00,58.92511
364.20,58.87148
364.40,58.80691
364.60,58.74806
364.80,58.68204
365.00,58.63485
365.20,58.59460
365.40,58.58252
365.60,58.56705
365.80,58.56923
366.00,58.57942
366.20,58.58362
366.40,58.57337
366.60,58.58204
366.80,58.59535
367.00,58.59497
367.20,58.62631
367.40,58.64937
367.60,58.67814
367.80,58.70827
368.00,58.74707
368.20,58.78490
368.40,58.85203
368.60,58.90294
368.80,58.97261
369.00,59.02863
369.20,59.09797
369.40,59.17171
369.60,59.23669
369.80,59.31378
370.00,59.38454
370.20,59.46029
370.40,59.53931
370.60,59.65915
370.80,59.72205
371.00,59.81752
371.20,59.90999
371.40,59.98021
371.60,60.03318
371.80,60.12832
372.00,60.22755
372.20,60.30838
372.40,60.40933
372.60,60.47744
372.80,60.55115
373.00,60.60849
373.20,60.68380
373.40,60.71987
373.60,60.79939
373.80,60.87232
374.00,60.91825
374.20,60.94345
374.40,60.98946
374.60,61.01410
374.80,61.03504
375.00,61.07428
375.20,61.11566
375.40,61.13724
375.60,61.14210
375.80,61.14101
376.00,61.13902
376.20,61.12364
376.40,61.12116
376.60,61.12691
376.80,61.10268
377.00,61.07658
377.20,61.05732
377.40,61.02093
377.60,60.97063
377.80,60.94505
378.00,60.90568
378.20,60.85576
378.40,60.81371
378.60,60.76636
378.80,60.71227
379.00,60.64982
379.20,60.58508
379.40,60.51665
379.60,60.44111
379.80,60.37438
380.00,60.29434
380.20,60.22891
380.40,60.15549
380.60,60.08763
380.80,60.00921
381.00,59.94764
381.20,59.87043
381.40,59.80539
381.60,59.74371
381.80,59.68748
382.00,59.62427
382.20,59.56076
382.40,59.50500
382.60,59.46301
382.80,59.40107
383.00,59.34735
383.20,59.29499
383.40,59.23630
383.60,59.17876
383.80,59.13393
384.00,59.08544
384.20,59.05744
384.40,59.02460
384.60,58.98682
384.80,58.95154
385.00,58.93081
385.20,58.91223
385.40,58.89273
385.60,58.89465
385.80,58.89167
386.00,58.91288
386.20,58.91618
386.40,58.92822
386.60,58.92249
386.80,58.94874
387.00,58.95435
387.20,58.97781
387.40,58.99974
387.60,59.04192
387.80,59.07786
388.00,59.12730
388.20,59.16336
388.40,59.22434
388.60,59.27714
388.80,59.32130
389.00,59.36024
389.20,59.42484
389.40,59.47655
389.60,59.53535
389.80,59.59468
390.00,59.66448
390.20,59.74241
390.40,59.81758
390.60,59.89091
390.80,59.96620
391.00,60.04123
391.20,60.10168
391.40,60.17817
391.60,60.24690
391.80,60.33430
392.00,60.42214
392.20,60.49938
392.40,60.57572
392.60,60.65795
392.80,60.72426
393.00,60.77725
393.20,60.85693
393.40,60.91464
393.60,60.96998
393.80,61.03362
394.00,61.10840
394.20,61.15795
394.40,61.21336
394.60,61.27968
394.80,61.33448
395.00,61.37317
395.20,61.42085
395.40,61.45335
395.60,61.48838
395.80,61.50883
396.00,61.52982
396.20,61.54468
396.40,61.56102
396.60,61.56188
396.80,61.57248
397.00,61.57697
397.20,61.58539
397.40,61.59406
397.60,61.59490
397.80,61.59115
398.00,61.58755
398.20,61.56655
398.40,61.54689
398.60,61.52195
398.80,61.49783
399.00,61.45475
399.20,61.40200
399.40,61.36406
399.60,61.32389
399.80,61.27970
400.00,61.24958
400.20,61.21978
400.40,61.17092
400.60,61.11711
400.80,61.05005
401.00,60.98799
401.20,60.93082
401.40,60.86838
401.60,60.81977
401.80,60.76126
402.00,60.70608
402.20,60.64628
402.40,60.58851
402.60,60.51500
402.80,60.45774
403.00,60.40605
403.20,60.35319
403.40,60.29549
403.60,60.22882
403.80,60.16954
404.00,60.09552
404.20,60.02773
404.40,59.96292
404.60,59.91071
404.80,59.85975
405.00,59.81460
405.20,59.77250
405.40,59.73434
405.60,59.69882
405.80,59.65385
406.00,59.60045
406.20,59.55148
406.40,59.50894
406.60,59.48269
406.80,59.45282
407.00,59.44246
407.20,59.41799
407.40,59.40351
407.60,59.38221
407.80,59.37828
408.00,59.34326
408.20,59.34626
408.40,59.33945
408.60,59.34460
408.80,59.34424
409.00,59.36336
409.20,59.36974
409.40,59.39321
409.60,59.40099
409.80,59.41739
410.00,59.45305
410.20,59.48171
410.40,59.49594
410.60,59.53146
410.80,59.56962
411.00,59.59923
411.20,59.62802
411.40,59.67456
411.60,59.71979
411.80,59.76393
412.00,59.80828
412.20,59.86609
412.40,59.92417
412.60,59.96953
412.80,60.03107
413.00,60.10079
413.20,60.16823
413.40,60.22558
413.60,60.28678
413.80,60.34271
414.00,60.41038
414.20,60.46737
414.40,60.53389
414.60,60.60819
414.80,60.67235
415.00,60.73604
415.20,60.80927
415.40,60.88020
415.60,60.93745
415.80,61.01646
416.00,61.07875
416.20,61.14792
416.40,61.20461
416.60,61.27961
416.80,61.33716
417.00,61.39553
417.20,61.45101
417.40,61.50223
417.60,61.55164
417.80,61.59852
418.00,61.62984
418.20,61.66173
418.40,61.70799
418.60,61.74836
418.80,61.78907
419.00,61.85344
419.20,61.90661
419.40,61.94460
419.60,61.98418
419.80,62.00592
420.00,62.01499
420.20,62.01987
420.40,62.03272
420.60,62.03889
420.80,62.05066
421.00,62.05223
421.20,62.05232
421.40,62.04418
421.60,62.03989
421.80,62.03181
422.00,62.02253
422.20,62.01499
422.40,62.00932
422.60,61.98931
422.80,61.95880
423.00,61.94667
423.20,61.92406
423.40,61.88743
423.60,61.85552
423.80,61.82223
424.00,61.78573
424.20,61.74929
424.40,61.71783
424.60,61.67518
424.80,61.64524
425.00,61.58406
425.20,61.53451
425.40,61.48804
425.60,61.43725
425.80,61.38344
426.00,61.35371
426.20,61.31416
426.40,61.27090
426.60,61.22572
426.80,61.18056
427.00,61.12308
427.20,61.05440
427.40,61.00065
427.60,60.94280
427.80,60.89092
428.00,60.83747
428.20,60.80822
428.40,60.74806
428.60,60.69909
428.80,60.64269
429.00,60.59331
429.20,60.53470
429.40,60.49625
429.60,60.45097
429.80,60.39913
430.00,60.35211
430.20,60.29232
430.40,60.24377
430.60,60.19915
430.80,60.16644
431.00,60.12574
431.20,60.09325
431.40,60.04938
431.60,60.01796
431.80,59.97903
432.00,59.94749
432.20,59.92259
432.40,59.90996
432.60,59.88398
432.80,59.87269
433.00,59.86502
433.20,59.86191
433.40,59.83381
433.60,59.82902
433.80,59.81944
434.00,59.81164
434.20,59.79781
434.40,59.80399
434.60,59.80102
434.80,59.80929
435.00,59.82088
435.20,59.82755
435.40,59.84051
435.60,59.86004
435.80,59.87543
436.00,59.88370
436.20,59.90205
436.40,59.93416
436.60,59.95364
436.80,59.97410
437.00,60.00261
437.20,60.03614
437.40,60.07038
437.60,60.10872
437.80,60.15648
438.00,60.20706
438.20,60.26989
438.40,60.31402
438.60,60.37316
438.80,60.42469
439.00,60.46618
439.20,60.49899
439.40,60.53964
439.60,60.58148
439.80,60.63081
440.00,60.69219
440.20,60.75516
440.40,60.81991
440.60,60.88356
440.80,60.94379
441.00,60.99541
441.20,61.04714
441.40,61.10627
441.60,61.15748
441.80,61.21337
442.00,61.27681
442.20,61.34605
442.40,61.40110
442.60,61.46256
442.80,61.51768
443.00,61.57563
443.20,61.62490
443.40,61.68361
443.60,61.73155
443.80,61.78532
444.00,61.83383
444.20,61.89146
444.40,61.93429
444.60,61.99195
444.80,62.04334
445.00,62.09540
445.20,62.13866
445.40,62.18953
445.60,62.23022
445.80,62.26752
446.00,62.30700
446.20,62.33518
446.40,62.36984
446.60,62.40112
446.80,62.42927
447.00,62.45216
447.20,62.48156
447.40,62.49750
447.60,62.50790
447.80,62.52328
448.00,62.52521
448.20,62.53170
448.40,62.53840
448.60,62.55925
448.80,62.56160
449.00,62.57637
449.20,62.58114
449.40,62.58351
449.60,62.57071
449.80,62.56651
450.00,62.55721
450.20,62.55003
450.40,62.53511
450.60,62.52823
450.80,62.51769
451.00,62.49493
451.20,62.47180
451.40,62.45892
451.60,62.42444
451.80,62.39308
452.00,62.37395
452.20,62.34320
452.40,62.30298
452.60,62.27987
452.80,62.24889
453.00,62.21337
453.20,62.17428
453.40,62.13521
453.60,62.08757
453.80,62.05220
454.00,62.00504
454.20,61.96342
454.40,61.92765
454.60,61.88048
454.80,61.82782
455.00,61.78237
455.20,61.74292
455.40,61.68932
455.60,61.64390
455.80,61.59912
456.00,61.54652
456.20,61.48177
456.40,61.42567
456.60,61.37753
456.80,61.32690
457.00,61.27796
457.20,61.22974
457.40,61.18168
457.60,61.13545
457.80,61.08271
458.00,61.03951
458.20,61.00481
458.40,60.96448
458.60,60.91380
458.80,60.86447
459.00,60.81771
459.20,60.76833
459.40,60.72155
459.60,60.68508
459.80,60.65414
460.00,60.61109
460.20,60.57742
460.40,60.54584
460.60,60.50996
460.80,60.47866
461.00,60.45887
461.20,60.43601
461.40,60.40688
461.60,60.37996
461.80,60.34887
462.00,60.32500
462.20,60.29962
462.40,60.27873
462.60,60.26405
462.80,60.24872
463.00,60.23065
463.20,60.22393
463.40,60.22602
463.60,60.21780
463.80,60.22837
464.00,60.23079
464.20,60.22630
464.40,60.22271
464.60,60.23299
464.80,60.22961
465.00,60.23611
465.20,60.24906
465.40,60.26495
465.60,60.28494
465.80,60.30408
466.00,60.32156
466.20,60.34144
466.40,60.35826
466.60,60.37972
466.80,60.40065
467.00,60.43230
467.20,60.45789
467.40,60.48875
467.60,60.51161
467.80,60.53852
468.00,60.56584
468.20,60.59998
468.40,60.63225
468.60,60.67122
468.80,60.71972
469.00,60.75601
469.20,60.80244
469.40,60.85755
469.60,60.90376
469.80,60.94376
470.00,60.99665
470.20,61.03300
470.40,61.06286
470.60,61.10360
470.80,61.15005
471.00,61.19708
471.20,61.25615
471.40,61.31187
471.60,61.36745
471.80,61.42150
472.00,61.46819
472.20,61.50381
472.40,61.55471
472.60,61.60176
472.80,61.64628
473.00,61.69595
473.20,61.75666
473.40,61.80023
473.60,61.85058
473.80,61.90348
474.00,61.94668
474.20,61.99797
474.40,62.05073
474.60,62.09233
474.80,62.12720
475.00,62.17943
475.20,62.22434
475.40,62.27657
475.60,62.32752
475.80,62.37962
476.00,62.42846
476.20,62.46965
476.40,62.50528
476.60,62.54207
476.80,62.58719
477.00,62.61960
477.20,62.64721
477.40,62.68029
477.60,62.71254
477.80,62.74067
478.00,62.77099
478.20,62.80807
478.40,62.83442
478.60,62.86188
478.80,62.88508
479.00,62.90969
479.20,62.92996
479.40,62.94979
479.60,62.97300
479.80,62.99811
480.00,63.01055
480.20,63.01856
480.40,63.03847
480.60,63.04713
480.80,63.04894
481.00,63.06217
481.20,63.06630
481.40,63.06391
481.60,63.05968
481.80,63.06490
482.00,63.05543
482.20,63.04882
482.40,63.03972
482.60,63.03805
482.80,63.01901
483.00,63.00747
483.20,62.99563
483.40,62.98891
483.60,62.97317
483.80,62.95764
484.00,62.93796
484.20,62.91890
484.40,62.89279
484.60,62.86590
484.80,62.84392
485.00,62.80827
485.20,62.78825
485.40,62.75455
485.60,62.72351
485.80,62.69048
486.00,62.67207
486.20,62.63000
486.40,62.59777
486.60,62.55785
486.80,62.51353
487.00,62.46938
487.20,62.43346
487.40,62.39659
487.60,62.35317
487.80,62.31959
488.00,62.28491
488.20,62.24489
488.40,62.20002
488.60,62.16359
488.80,62.12513
489.00,62.08720
489.20,62.04629
489.40,62.01046
489.60,61.96799
489.80,61.91798
490.00,61.86913
490.20,61.83043
490.40,61.78998
490.60,61.74976
490.80,61.71174
491.00,61.67291
491.20,61.63314
491.40,61.58918
491.60,61.55725
491.80,61.51866
492.00,61.47206
492.20,61.43053
492.40,61.38998
492.60,61.34745
492.80,61.30856
493.00,61.27750
493.20,61.23884
493.40,61.20921
493.60,61.17800
493.80,61.15267
494.00,61.12560
494.20,61.09944
494.40,61.06960
494.60,61.03575
494.80,61.01007
495.00,60.98102
495.20,60.96233
495.40,60.94356
495.60,60.92854
495.80,60.90686
496.00,60.88918
496.20,60.85939
496.40,60.83503
496.60,60.81347
496.80,60.79489
497.00,60.78159
497.20,60.77117
497.40,60.76900
497.60,60.76156
497.80,60.75206
498.00,60.74420
498.20,60.73319
498.40,60.72221
498.60,60.72245
498.80,60.72266
499.00,60.72421
499.20,60.73043
499.40,60.72814
499.60,60.73099
499.80,60.73916
500.00,60.74393
500.20,60.75264
500.40,60.76651
500.60,60.77492
500.80,60.78140
501.00,60.79387
501.20,60.81089
501.40,60.81938
501.60,60.83561
501.80,60.85790
502.00,60.88050
502.20,60.89757
502.40,60.92129
502.60,60.94015
502.80,60.96002
503.00,60.97949
503.20,61.01046
503.40,61.04097
503.60,61.07876
503.80,61.11674
504.00,61.15178
504.20,61.18212
504.40,61.20980
504.60,61.23602
504.80,61.27532
505.00,61.30605
505.20,61.34701
505.40,61.39596
505.60,61.43771
505.80,61.46715
506.00,61.51429
506.20,61.55377
506.40,61.59359
506.60,61.63988
506.80,61.68077
507.00,61.72956
507.20,61.77227
507.40,61.82203
507.60,61.86194
507.80,61.90904
508.00,61.94767
508.20,61.99210
508.40,62.03181
508.60,62.08054
508.80,62.13112
509.00,62.18028
509.20,62.23745
509.40,62.28594
509.60,62.33956
509.80,62.38360
510.00,62.42251
510.20,62.45081
510.40,62.49526
510.60,62.53419
510.80,62.57730
511.00,62.62243
511.20,62.66457
511.40,62.70501
511.60,62.74228
511.80,62.78245
512.00,62.82105
512.20,62.86603
512.40,62.90191
512.60,62.93627
512.80,62.97127
513.00,63.00409
513.20,63.04041
513.40,63.07426
513.60,63.11201
513.80,63.15054
514.00,63.19518
514.20,63.22427
514.40,63.26255
514.60,63.29044
514.80,63.31594
515.00,63.33979
515.20,63.37765
515.40,63.39841
515.60,63.42537
515.80,63.44916
516.00,63.47280
516.20,63.49115
516.40,63.51167
516.60,63.53291
516.80,63.55011
517.00,63.56347
517.20,63.57870
517.40,63.59434
517.60,63.60872
517.80,63.62057
518.00,63.63704
518.20,63.64399
518.40,63.65351
518.60,63.65684
518.80,63.66264
519.00,63.66972
519.20,63.66213
519.40,63.65988
519.60,63.65675
519.80,63.65589
520.00,63.64189
520.20,63.64324
520.40,63.64251
520.60,63.64620
520.80,63.64610
521.00,63.64340
521.20,63.63750
521.40,63.62345
521.60,63.60582
521.80,63.59180
522.00,63.57657
522.20,63.56894
522.40,63.55655
522.60,63.54089
522.80,63.51129
523.00,63.49601
523.20,63.47350
523.40,63.45460
523.60,63.43643
523.80,63.42238
524.00,63.39073
524.20,63.36654
524.40,63.34019
524.60,63.31826
524.80,63.28886
525.00,63.26559
525.20,63.23544
525.40,63.21012
525.60,63.17532
525.80,63.15246
526.00,63.12764
526.20,63.09210
526.40,63.05413
526.60,63.02105
526.80,62.99032
527.00,62.94942
527.20,62.92260
527.40,62.88775
527.60,62.85352
527.80,62.80386
528.00,62.76851
528.20,62.73043
528.40,62.69173
528.60,62.65559
528.80,62.62830
529.00,62.59573
529.20,62.55147
529.40,62.51714
529.60,62.47233
529.80,62.43640
530.00,62.40207
530.20,62.36897
530.40,62.33604
530.60,62.30673
530.80,62.26515
531.00,62.21656
531.20,62.17106
531.40,62.12489
531.60,62.09742
531.80,62.06210
532.00,62.03210
532.20,62.00591
532.40,61.97444
532.60,61.93126
532.80,61.90049
533.00,61.86751
533.20,61.83924
533.40,61.81240
533.60,61.78298
533.80,61.75508
534.00,61.72861
534.20,61.69445
534.40,61.66660
534.60,61.64917
534.80,61.62553
535.00,61.61298
535.20,61.60028
535.40,61.58212
535.60,61.55980
535.80,61.53902
536.00,61.51391
536.20,61.48734
536.40,61.46851
536.60,61.44207
536.80,61.42564
537.00,61.40276
537.20,61.39030
537.40,61.37215
537.60,61.36228
537.80,61.34461
538.00,61.33688
538.20,61.32655
538.40,61.32117
538.60,61.31981
538.80,61.32424
539.00,61.31926
539.20,61.31355
539.40,61.31638
539.60,61.30868
539.80,61.29518
540.00,61.28877
540.20,61.29362
540.40,61.28571
540.60,61.27976
540.80,61.29011
541.00,61.29774
541.20,61.30369
541.40,61.31337
541.60,61.32801
541.80,61.32798
542.00,61.33714
542.20,61.34349
542.40,61.35042
542.60,61.35595
542.80,61.37176
543.00,61.38291
543.20,61.39660
543.40,61.41316
543.60,61.43976
543.80,61.45652
544.00,61.47096
544.20,61.49132
544.40,61.51107
544.60,61.52139
544.80,61.54441
545.00,61.57000
545.20,61.59338
545.40,61.61456
545.60,61.64982
545.80,61.67094
546.00,61.70846
546.20,61.73357
546.40,61.76636
546.60,61.78836
546.80,61.82671
547.00,61.85578
547.20,61.88740
547.40,61.91906
547.60,61.95464
547.80,61.98696
548.00,62.01822
548.20,62.05199
548.40,62.08925
548.60,62.12307
548.80,62.15845
549.00,62.19224
549.20,62.23159
549.40,62.25687
549.60,62.29774
549.80,62.33309
550.00,62.37397
550.20,62.41117
550.40,62.45658
550.60,62.49957
550.80,62.53385
551.00,62.56509
551.20,62.60352
551.40,62.64058
551.60,62.66480
551.80,62.70740
552.00,62.75053
552.20,62.78759
552.40,62.83092
552.60,62.87628
552.80,62.91440
553.00,62.95238
553.20,62.99340
553.40,63.03262
553.60,63.07488
553.80,63.12075
554.00,63.15761
554.20,63.19691
554.40,63.23006
554.60,63.26454
554.80,63.29475
555.00,63.33343
555.20,63.36395
555.40,63.40744
555.60,63.44631
555.80,63.47636
556.00,63.50300
556.20,63.53815
556.40,63.56853
556.60,63.59661
556.80,63.63612
557.00,63.66993
557.20,63.70383
557.40,63.72907
557.60,63.76405
557.80,63.78825
558.00,63.82079
558.20,63.84928
558.40,63.87647
558.60,63.89771
558.80,63.92273
559.00,63.95112
559.20,63.97002
559.40,63.99560
559.60,64.01198
559.80,64.03507
560.00,64.05463
560.20,64.08211
560.40,64.10549
560.60,64.12200
560.80,64.14180
561.00,64.15877
561.20,64.16867
561.40,64.17663
561.60,64.19582
561.80,64.21310
562.00,64.21465
562.20,64.22719
562.40,64.23623
562.60,64.24993
562.80,64.25480
563.00,64.27100
563.20,64.28211
563.40,64.28866
563.60,64.28654
563.80,64.28882
564.00,64.28481
564.20,64.28421
564.40,64.29372
564.60,64.30351
564.80,64.30443
565.00,64.30128
565.20,64.29958
565.40,64.28761
565.60,64.27549
565.80,64.26361
566.00,64.26764
566.20,64.26299
566.40,64.25931
566.60,64.24882
566.80,64.24404
567.00,64.22836
567.20,64.21425
567.40,64.19817
567.60,64.18722
567.80,64.17932
568.00,64.17032
568.20,64.15650
568.40,64.14751
568.60,64.13962
568.80,64.12403
569.00,64.10217
569.20,64.07686
569.40,64.05436
569.60,64.02892
569.80,64.00465
570.00,63.98552
570.20,63.97370
570.40,63.95475
570.60,63.93337
570.80,63.91224
571.00,63.88559
571.20,63.86715
571.40,63.84369
571.60,63.82926
571.80,63.80617
572.00,63.78692
572.20,63.75393
572.40,63.72727
572.60,63.69070
572.80,63.65892
573.00,63.63633
573.20,63.60391
573.40,63.57191
573.60,63.54049
573.80,63.51175
574.00,63.47631
574.20,63.44316
574.40,63.41247
574.60,63.38622
574.80,63.35276
575.00,63.31787
575.20,63.28455
575.40,63.25457
575.60,63.21779
575.80,63.18873
576.00,63.16865
576.20,63.14524
576.40,63.11785
576.60,63.08959
576.80,63.06108
577.00,63.02939
577.20,63.00165
577.40,62.96742
577.60,62.94255
577.80,62.90929
578.00,62.87485
578.20,62.83736
578.40,62.81000
578.60,62.77692
578.80,62.75153
579.00,62.72411
579.20,62.70762
579.40,62.68089
579.60,62.65768
579.80,62.63359
580.00,62.59927
580.20,62.56406
580.40,62.53292
580.60,62.50842
580.80,62.48623
581.00,62.47654
581.20,62.45480
581.40,62.43990
581.60,62.41526
581.80,62.38827
582.00,62.35658
582.20,62.33717
582.40,62.31523
582.60,62.29433
582.80,62.27548
583.00,62.25809
583.20,62.24006
583.40,62.22344
583.60,62.19868
583.80,62.17461
584.00,62.15809
584.20,62.13540
584.40,62.11559
584.60,62.10280
584.80,62.08937
585.00,62.07899
585.20,62.06637
585.40,62.04865
585.60,62.03606
585.80,62.03005
586.00,62.01777
586.20,62.01241
586.40,62.00586
586.60,61.99807
586.80,61.98962
587.00,61.98161
587.20,61.97829
587.40,61.97054
587.60,61.96296
587.80,61.95436
588.00,61.94848
588.20,61.93994
588.40,61.94523
588.60,61.95191
588.80,61.95399
589.00,61.95546
589.20,61.95185
589.40,61.95077
589.60,61.94306
589.80,61.94686
590.00,61.94359
590.20,61.95233
590.40,61.95217
590.60,61.96145
590.80,61.96551
591.00,61.97301
591.20,61.98371
591.40,62.00199
591.60,62.01353
591.80,62.02098
592.00,62.03072
592.20,62.03855
592.40,62.03983
592.60,62.04895
592.80,62.06171
593.00,62.07917
593.20,62.09782
593.40,62.11681
593.60,62.13878
593.80,62.15864
594.00,62.17934
594.20,62.18877
594.40,62.20297
594.60,62.21237
594.80,62.23071
595.00,62.24230
595.20,62.26591
595.40,62.28756
595.60,62.30654
595.80,62.32321
596.00,62.35788
596.20,62.38139
596.40,62.41030
596.60,62.44232
596.80,62.46768
597.00,62.49446
597.20,62.52396
597.40,62.55012
597.60,62.57428
597.80,62.60409
598.00,62.61480
598.20,62.63174
598.40,62.65737
598.60,62.68614
598.80,62.71277
599.00,62.74973
599.20,62.78346
599.40,62.80493
599.60,62.84021
599.80,62.87146
600.00,62.90119
600.20,62.92984
600.40,62.96619
600.60,62.99511
600.80,63.02755
601.00,63.05760
601.20,63.09428
601.40,63.12608
601.60,63.15644
601.80,63.17632
602.00,63.21078
602.20,63.24171
602.40,63.26635
602.60,63.29894
602.80,63.34419
603.00,63.37757
603.20,63.41253
603.40,63.45451
603.60,63.48596
603.80,63.50780
604.00,63.53155
604.20,63.56397
604.40,63.59153
604.60,63.61797
604.80,63.65768
605.00,63.69817
605.20,63.72646
605.40,63.76914
605.60,63.81304
605.80,63.84847
606.00,63.88250
606.20,63.91647
606.40,63.94337
606.60,63.96814
606.80,63.99494
607.00,64.02647
607.20,64.05482
607.40,64.07618
607.60,64.10589
607.80,64.13171
608.00,64.15845
608.20,64.17997
608.40,64.21391
608.60,64.24471
608.80,64.27158
609.00,64.29646
609.20,64.33267
609.40,64.36335
609.60,64.38220
609.80,64.40830
610.00,64.43379
610.20,64.46283
610.40,64.48973
610.60,64.51746
610.80,64.53996
611.00,64.56587
611.20,64.58522
611.40,64.59634
611.60,64.61887
611.80,64.64815
612.00,64.67372
612.20,64.69806
612.40,64.72533
612.60,64.74734
612.80,64.76390
613.00,64.77983
613.20,64.79506
613.40,64.80356
613.60,64.82192
613.80,64.84665
614.00,64.86410
614.20,64.88395
614.40,64.91624
614.60,64.92583
614.80,64.93171
615.00,64.93720
615.20,64.94474
615.40,64.94764
615.60,64.96534
615.80,64.98149
616.00,64.98915
616.20,64.99893
616.40,65.00294
616.60,65.00906
616.80,65.00596
617.00,65.01743
617.20,65.01869
617.40,65.03171
617.60,65.03634
617.80,65.04765
618.00,65.05427
618.20,65.06393
618.40,65.06512
618.60,65.07828
618.80,65.07494
619.00,65.06901
619.20,65.06724
619.40,65.06580
619.60,65.04978
619.80,65.06103
620.00,65.06494
620.20,65.06677
620.40,65.06325
620.60,65.06447
620.80,65.05458
621.00,65.04691
621.20,65.03711
621.40,65.03525
621.60,65.02374
621.80,65.01997
622.00,65.01383
622.20,65.00326
622.40,64.98833
622.60,64.97623
622.80,64.95344
623.00,64.92953
623.20,64.92031
623.40,64.90932
623.60,64.89686
623.80,64.89102
624.00,64.88991
624.20,64.87196
624.40,64.85190
624.60,64.84159
624.80,64.82925
625.00,64.81422
625.20,64.79746
625.40,64.78900
625.60,64.77108
625.80,64.75067
626.00,64.73061
626.20,64.71645
626.40,64.69403
626.60,64.67511
626.80,64.65187
627.00,64.63295
627.20,64.61294
627.40,64.59178
627.60,64.56935
627.80,64.55089
628.00,64.53310
628.20,64.51519
628.40,64.48964
628.60,64.47214
628.80,64.45086
629.00,64.42983
629.20,64.40395
629.40,64.38732
629.60,64.36235
629.80,64.33272
630.00,64.30132
630.20,64.26784
630.40,64.24502
630.60,64.22340
630.80,64.20656
631.00,64.18882
631.20,64.17994
631.40,64.15070
631.60,64.11936
631.80,64.09732
632.00,64.07240
632.20,64.04320
632.40,64.02550
632.60,64.00234
632.80,63.97650
633.00,63.94622
633.20,63.91567
633.40,63.88489
633.60,63.86068
633.80,63.83446
634.00,63.80865
634.20,63.78568
634.40,63.76232
634.60,63.73733
634.80,63.71289
635.00,63.69081
635.20,63.66398
635.40,63.63729
635.60,63.61865
635.80,63.58906
636.00,63.55274
636.20,63.52917
636.40,63.50380
636.60,63.47833
636.80,63.46185
637.00,63.45386
637.20,63.43724
637.40,63.41236
637.60,63.38935
637.80,63.36219
638.00,63.33668
638.20,63.30769
638.40,63.29696
638.60,63.28028
638.80,63.26163
639.00,63.23572
639.20,63.21537
639.40,63.19938
639.60,63.17692
639.80,63.16130
640.00,63.15020
640.20,63.12914
640.40,63.10329
640.60,63.07776
640.80,63.05923
641.00,63.03272
641.20,63.02660
641.40,63.00650
641.60,63.00139
641.80,62.98255
642.00,62.97880
642.20,62.96343
642.40,62.94733
642.60,62.93941
642.80,62.92500
643.00,62.91254
643.20,62.90080
643.40,62.88778
643.60,62.86789
643.80,62.85831
644.00,62.84600
644.20,62.82596
644.40,62.82448
644.60,62.81295
644.80,62.79799
645.00,62.78426
645.20,62.78116
645.40,62.77665
645.60,62.77565
645.80,62.76651
646.00,62.76491
646.20,62.75759
646.40,62.74871
646.60,62.74292
646.80,62.75622
647.00,62.75011
647.20,62.74650
647.40,62.75374
647.60,62.75138
647.80,62.73055
648.00,62.72531
648.20,62.73343
648.40,62.72457
648.60,62.71738
648.80,62.72436
649.00,62.73100
649.20,62.73408
649.40,62.75133
649.60,62.76183
649.80,62.76954
650.00,62.77003
650.20,62.77067
650.40,62.75692
650.60,62.75733
650.80,62.77155
651.00,62.78813
651.20,62.78775
651.40,62.80444
651.60,62.81264
651.80,62.81384
652.00,62.81697
652.20,62.82783
652.40,62.82426
652.60,62.82676
652.80,62.83398
653.00,62.83680
653.20,62.85328
653.40,62.86742
653.60,62.88671
653.80,62.91310
654.00,62.93359
654.20,62.94695
654.40,62.95695
654.60,62.96785
654.80,62.96389
655.00,62.97325
655.20,62.98110
655.40,62.99279
655.60,63.01519
655.80,63.02891
656.00,63.04904
656.20,63.06797
656.40,63.08793
656.60,63.09080
656.80,63.12115
657.00,63.13432
657.20,63.15277
657.40,63.17295
657.60,63.20202
657.80,63.20913
658.00,63.23318
658.20,63.25147
658.40,63.26879
658.60,63.28089
658.80,63.31925
659.00,63.33753
659.20,63.35541
659.40,63.39977
659.60,63.42425
659.80,63.43336
660.00,63.45212
660.20,63.48659
660.40,63.49829
660.60,63.51744
660.80,63.54544
661.00,63.58533
661.20,63.60782
661.40,63.62156
661.60,63.66145
661.80,63.68502
662.00,63.70654
662.20,63.73570
662.40,63.76010
662.60,63.77500
662.80,63.80022
663.00,63.82403
663.20,63.84640
663.40,63.88971
663.60,63.91973
663.80,63.94575
664.00,63.96446
664.20,63.99040
664.40,64.01495
664.60,64.04806
664.80,64.07927
665.00,64.11484
665.20,64.14486
665.40,64.17127
665.60,64.19538
665.80,64.22040
666.00,64.24959
666.20,64.27563
666.40,64.29759
666.60,64.33190
666.80,64.35419
667.00,64.38500
667.20,64.41203
667.40,64.44513
667.60,64.46785
667.80,64.50678
668.00,64.52799
668.20,64.56071
668.40,64.59533
668.60,64.61961
668.80,64.64779
669.00,64.68416
669.20,64.70050
669.40,64.70753
669.60,64.73296
669.80,64.74868
670.00,64.77087
670.20,64.80033
670.40,64.82707
670.60,64.85838
670.80,64.88552
671.00,64.89674
671.20,64.92568
671.40,64.96275
671.60,64.97701
671.80,65.00587
672.00,65.04423
672.20,65.05381
672.40,65.07866
672.60,65.11166
672.80,65.14360
673.00,65.16131
673.20,65.21305
673.40,65.24419
673.60,65.26480
673.80,65.29114
674.00,65.31069
674.20,65.31218
674.40,65.31901
674.60,65.34228
674.80,65.34731
675.00,65.38255
675.20,65.40350
675.40,65.42946
675.60,65.45501
675.80,65.47359
676.00,65.48011
676.20,65.49789
676.40,65.52728
676.60,65.53662
676.80,65.55696
677.00,65.57258
677.20,65.58872
677.40,65.59358
677.60,65.60549
677.80,65.62096
678.00,65.64834
678.20,65.68006
678.40,65.70510
678.60,65.73089
678.80,65.74227
679.00,65.74410
679.20,65.74819
679.40,65.75795
679.60,65.76064
679.80,65.77667
680.00,65.79359
680.20,65.81105
680.40,65.82227
680.60,65.84064
680.80,65.85777
681.00,65.87672
681.20,65.88341
681.40,65.89425
681.60,65.90199
681.80,65.91039
682.00,65.92723
682.20,65.93150
682.40,65.93138
682.60,65.93785
682.80,65.93493
683.00,65.92936
683.20,65.93694
683.40,65.94066
683.60,65.94927
683.80,65.96674
684.00,65.96826
684.20,65.97314
684.40,65.97901
684.60,65.98991
684.80,65.99443
685.00,65.99031
685.20,65.99677
685.40,65.99399
685.60,66.00196
685.80,65.98308
686.00,65.98964
686.20,65.98560
686.40,65.98085
686.60,65.94604
686.80,65.95982
687.00,65.96539
687.20,65.97044
687.40,65.95660
687.60,65.96119
687.80,65.94443
688.00,65.93342
688.20,65.91569
688.40,65.92904
688.60,65.92922
688.80,65.92830
689.00,65.91829
689.20,65.92939
689.40,65.92164
689.60,65.91682
689.80,65.90089
690.00,65.90159
690.20,65.87269
690.40,65.86182
690.60,65.85488
690.80,65.85286
691.00,65.83214
691.20,65.83126
691.40,65.81029
691.60,65.80271
691.80,65.79950
692.00,65.78568
692.20,65.77260
692.40,65.75993
692.60,65.74317
692.80,65.72149
693.00,65.72066
693.20,65.69983
693.40,65.69404
693.60,65.68391
693.80,65.67459
694.00,65.65724
694.20,65.65106
694.40,65.63029
694.60,65.61242
694.80,65.59438
695.00,65.57860
695.20,65.56070
695.40,65.55956
695.60,65.54500
695.80,65.53138
696.00,65.51189
696.20,65.49631
696.40,65.47438
696.60,65.45717
696.80,65.44555
697.00,65.42721
697.20,65.40151
697.40,65.38008
697.60,65.34920
697.80,65.32085
698.00,65.31227
698.20,65.29301
698.40,65.28860
698.60,65.28552
698.80,65.27387
699.00,65.26075
699.20,65.25214
699.40,65.22739
699.60,65.21218
699.80,65.18350
700.00,65.15135
700.20,65.12078
700.40,65.09001
700.60,65.06090
700.80,65.04408
701.00,65.02358
701.20,65.01687
701.40,65.00953
701.60,64.98574
701.80,64.96979
702.00,64.94957
702.20,64.91391
702.40,64.90785
702.60,64.90310
702.80,64.88793
703.00,64.86648
703.20,64.84926
703.40,64.80797
703.60,64.79133
703.80,64.76923
704.00,64.75366
704.20,64.73591
704.40,64.71760
704.60,64.68260
704.80,64.65721
705.00,64.62147
705.20,64.59406
705.40,64.57076
705.60,64.54476
705.80,64.53430
706.00,64.53207
706.20,64.53526
706.40,64.53063
706.60,64.50821
706.80,64.49259
707.00,64.46187
707.20,64.42030
707.40,64.36997
707.60,64.36537
707.80,64.33604
708.00,64.32891
708.20,64.30989
708.40,64.31233
708.60,64.29464
708.80,64.27866
709.00,64.27144
709.20,64.25593
709.40,64.24648
709.60,64.22285
709.80,64.19808
710.00,64.16374
710.20,64.15088
710.40,64.13871
710.60,64.12233
710.80,64.10806
711.00,64.10881
711.20,64.10184
711.40,64.08565
711.60,64.07428
711.80,64.07210
712.00,64.06155
712.20,64.04182
712.40,64.01638
712.60,63.99618
712.80,64.00213
713.00,63.96621
713.20,63.95794
713.40,63.94590
713.60,63.92725
713.80,63.89816
714.00,63.89451
714.20,63.89248
714.40,63.86594
714.60,63.87838
714.80,63.85101
715.00,63.83979
715.20,63.83440
715.40,63.85046
715.60,63.83495
715.80,63.82829
716.00,63.81403
716.20,63.78025
716.40,63.75499
716.60,63.73493
716.80,63.74131
717.00,63.74522
717.20,63.75498
717.40,63.76308
717.60,63.75560
717.80,63.74754
718.00,63.72079
718.20,63.70208
718.40,63.69337
718.60,63.69112
718.80,63.68856
719.00,63.68968
719.20,63.69718
719.40,63.69112
719.60,63.69863
719.80,63.68507
720.00,63.69649
720.20,63.67999
720.40,63.67235
720.60,63.66762
720.80,63.64264
721.00,63.63335
721.20,63.62845
721.40,63.62950
721.60,63.61973
721.80,63.64198
722.00,63.65001
722.20,63.66225
722.40,63.67515
722.60,63.68138
722.80,63.67725
723.00,63.67952
723.20,63.68611
723.40,63.67294
723.60,63.67134
723.80,63.68710
724.00,63.67752
724.20,63.67800
724.40,63.68380
724.60,63.69217
724.80,63.67962
725.00,63.68768
725.20,63.69144
725.40,63.70868
725.60,63.72260
725.80,63.73728
726.00,63.73793
726.20,63.71938
726.40,63.70230
726.60,63.70798
726.80,63.72725
727.00,63.74195
727.20,63.76688
727.40,63.79945
727.60,63.79488
727.80,63.78812
728.00,63.78735
728.20,63.80395
728.40,63.81368
728.60,63.81794
728.80,63.83815
729.00,63.85840
729.20,63.86736
729.40,63.86321
729.60,63.88814
729.80,63.89684
730.00,63.91120
730.20,63.92998
730.40,63.93775
730.60,63.94660
730.80,63.96335
731.00,63.97510
731.20,63.99262
731.40,63.99469
731.60,64.00204
731.80,64.00248
732.00,64.02024
732.20,64.03525
732.40,64.06827
732.60,64.07820
732.80,64.11931
733.00,64.13909
733.20,64.15293
733.40,64.14605
733.60,64.18474
733.80,64.18968
734.00,64.20391
734.20,64.21487
734.40,64.26547
734.60,64.26404
734.80,64.28304
735.00,64.27944
735.20,64.28498
735.40,64.30023
735.60,64.34187
735.80,64.34109
736.00,64.37215
736.20,64.39237
736.40,64.42997
736.60,64.44557
736.80,64.47139
737.00,64.51347
737.20,64.53220
737.40,64.53877
737.60,64.53770
737.80,64.57044
738.00,64.57310
738.20,64.62708
738.40,64.63215
738.60,64.66287
738.80,64.66894
739.00,64.68589
739.20,64.67909
739.40,64.71184
739.60,64.73176
739.80,64.75722
740.00,64.79282
740.20,64.83522
740.40,64.85625
740.60,64.87737
740.80,64.90133
741.00,64.91048
741.20,64.91650
741.40,64.92214
741.60,64.97715
741.80,64.98238
742.00,64.99367
742.20,65.02625
742.40,65.05066
742.60,65.06822
742.80,65.09666
743.00,65.12275
743.20,65.14026
743.40,65.17370
743.60,65.17316
743.80,65.21105
744.00,65.23048
744.20,65.23584
744.40,65.27286
744.60,65.30169
744.80,65.31655
745.00,65.34746
745.20,65.39564
745.40,65.40323
745.60,65.43682
745.80,65.47463
746.00,65.49383
746.20,65.52941
746.40,65.52824
746.60,65.55382
746.80,65.55585
747.00,65.57639
747.20,65.57317
747.40,65.62784
747.60,65.62245
747.80,65.64423
748.00,65.68026
748.20,65.72518
748.40,65.73367
748.60,65.75154
748.80,65.80862
749.00,65.82842
749.20,65.81439
749.40,65.82252
749.60,65.86581
749.80,65.84138
750.00,65.84783
750.20,65.88791
750.40,65.94372
750.60,65.96620
750.80,66.03137
751.00,66.06309
751.20,66.09953
751.40,66.09409
751.60,66.09800
751.80,66.10232
752.00,66.11426
752.20,66.11934
752.40,66.12999
752.60,66.16209
752.80,66.16719
753.00,66.19901
753.20,66.22439
753.40,66.27156
753.60,66.28672
753.80,66.32189
754.00,66.31460
754.20,66.33160
754.40,66.35425
754.60,66.39050
754.80,66.39375
755.00,66.44980
755.20,66.48512
755.40,66.49709
755.60,66.49427
755.80,66.52588
756.00,66.54566
756.20,66.53191
756.40,66.54494
756.60,66.56377
756.80,66.57513
757.00,66.58819
757.20,66.60747
757.40,66.61388
757.60,66.64870
757.80,66.65646
758.00,66.67261
758.20,66.68553
758.40,66.70096
758.60,66.71316
758.80,66.76784
759.00,66.78704
759.20,66.82549
759.40,66.84137
759.60,66.83906
759.80,66.81480
760.00,66.82440
760.20,66.80825
760.40,66.84216
760.60,66.85852
760.80,66.87327
761.00,66.89453
761.20,66.87697
761.40,66.86559
761.60,66.88189
761.80,66.89068
762.00,66.88671
762.20,66.95061
762.40,66.95176
762.60,66.95548
762.80,66.97710
763.00,66.97513
763.20,66.97239
763.40,66.97069
763.60,67.00029
763.80,67.01088
764.00,67.04533
764.20,67.03284
764.40,67.07666
764.60,67.07329
764.80,67.06295
765.00,67.05043
765.20,67.07194
765.40,67.07582
765.60,67.07979
765.80,67.09945
766.00,67.11494
766.20,67.11659
766.40,67.12197
766.60,67.07902
766.80,67.05939
767.00,67.04032
767.20,67.04869
767.40,67.04578
767.60,67.08748
767.80,67.12041
768.00,67.11360
768.20,67.11781
768.40,67.11450
768.60,67.12363
768.80,67.09015
769.00,67.12265
769.20,67.13616
769.40,67.10376
769.60,67.08653
769.80,67.09325
770.00,67.03801
770.20,67.02012
770.40,67.06658
770.60,67.07872
770.80,67.09782
771.00,67.14979
771.20,67.13458
771.40,67.11684
771.60,67.09233
771.80,67.06404
772.00,67.04944
772.20,67.03923
772.40,67.00894
772.60,67.02778
772.80,67.04912
773.00,67.04628
773.20,67.06532
773.40,67.07892
773.60,67.06428
773.80,67.04628
774.00,67.04155
774.20,67.02270
774.40,67.01416
774.60,67.03163
774.80,67.02251
775.00,67.01143
775.20,67.01604
775.40,67.02063
775.60,66.97112
775.80,66.98257
776.00,66.98360
776.20,66.96057
776.40,66.97504
776.60,66.98059
776.80,66.97466
777.00,66.96224
777.20,66.94996
777.40,66.91944
777.60,66.89129
777.80,66.89256
778.00,66.90706
778.20,66.91182
778.40,66.92264
778.60,66.92162
778.80,66.87669
779.00,66.82609
779.20,66.83372
779.40,66.78417
779.60,66.76280
779.80,66.75377
780.00,66.74658
780.20,66.69266
780.40,66.67516
780.60,66.65834
780.80,66.66313
781.00,66.65010
781.20,66.68941
781.40,66.69610
781.60,66.72473
781.80,66.70005
782.00,66.70214
782.20,66.65297
782.40,66.66239
782.60,66.63491
782.80,66.62740
783.00,66.57401
783.20,66.56848
783.40,66.50766
783.60,66.50215
783.80,66.48141
784.00,66.49165
784.20,66.50001
784.40,66.50766
784.60,66.47293
784.80,66.43519
785.00,66.39042
785.20,66.34408
785.40,66.33168
785.60,66.35064
785.80,66.33723
786.00,66.35677
786.20,66.35288
786.40,66.34755
786.60,66.28457
786.80,66.28094
787.00,66.28186
787.20,66.26842
787.40,66.25326
787.60,66.24011
787.80,66.23761
788.00,66.17941
788.20,66.16085
788.40,66.11890
788.60,66.13598
788.80,66.10578
789.00,66.11691
789.20,66.11968
789.40,66.13816
789.60,66.12438
789.80,66.13298
790.00,66.11196
790.20,66.07558
790.40,66.02415
790.60,65.98658
790.80,65.94002
791.00,65.92920
791.20,65.90492
791.40,65.89739
791.60,65.86908
791.80,65.86042
792.00,65.82489
792.20,65.81019
792.40,65.76389
792.60,65.76846
792.80,65.73219
793.00,65.73573
793.20,65.72478
793.40,65.73737
793.60,65.71493
793.80,65.75084
794.00,65.75135
794.20,65.75344
794.40,65.74872
794.60,65.72723
794.80,65.65506
795.00,65.60549
795.20,65.58397
795.40,65.58304
795.60,65.58290
795.80,65.58822
796.00,65.58393
796.20,65.56914
796.40,65.52531
796.60,65.50582
796.80,65.52410
797.00,65.48669
797.20,65.45947
797.40,65.44818
797.60,65.43067
797.80,65.40645
798.00,65.41448
798.20,65.40885
798.40,65.40851
798.60,65.42917
798.80,65.41488
799.00,65.41192
799.20,65.37869
799.40,65.38249
799.60,65.34737
799.80,65.33892
800.00,65.33356
