"1091 - RawData"
"Wavelength nm.","T%"
200.00,0.50576
200.20,0.49216
200.40,0.51048
200.60,0.53484
200.80,0.48616
201.00,0.46683
201.20,0.49165
201.40,0.46017
201.60,0.44189
201.80,0.44751
202.00,0.46203
202.20,0.46349
202.40,0.48082
202.60,0.46622
202.80,0.45947
203.00,0.42492
203.20,0.45065
203.40,0.45109
203.60,0.48690
203.80,0.50975
204.00,0.54781
204.20,0.53196
204.40,0.55337
204.60,0.54213
204.80,0.55292
205.00,0.56884
205.20,0.56552
205.40,0.54796
205.60,0.53433
205.80,0.53320
206.00,0.52968
206.20,0.54932
206.40,0.55264
206.60,0.57796
206.80,0.58374
207.00,0.57196
207.20,0.55414
207.40,0.58927
207.60,0.58801
207.80,0.61326
208.00,0.63843
208.20,0.64467
208.40,0.62989
208.60,0.63220
208.80,0.62036
209.00,0.61437
209.20,0.63055
209.40,0.64925
209.60,0.65126
209.80,0.65808
210.00,0.67617
210.20,0.67087
210.40,0.66133
210.60,0.67632
210.80,0.69301
211.00,0.70680
211.20,0.74145
211.40,0.74999
211.60,0.76739
211.80,0.76052
212.00,0.76290
212.20,0.76851
212.40,0.77791
212.60,0.79518
212.80,0.81517
213.00,0.82605
213.20,0.82426
213.40,0.84084
213.60,0.84342
213.80,0.85639
214.00,0.86135
214.20,0.86509
214.40,0.87591
214.60,0.87721
214.80,0.88904
215.00,0.89746
215.20,0.91533
215.40,0.94475
215.60,0.94821
215.80,0.94963
216.00,0.96818
216.20,0.98675
216.40,0.98888
216.60,1.01152
216.80,1.03189
217.00,1.03405
217.20,1.01479
217.40,1.00596
217.60,1.02714
217.80,1.03787
218.00,1.04396
218.20,1.06310
218.40,1.08424
218.60,1.10536
218.80,1.12082
219.00,1.13577
219.20,1.16288
219.40,1.19302
219.60,1.19398
219.80,1.19753
220.00,1.21476
220.20,1.21649
220.40,1.23601
220.60,1.26857
220.80,1.28976
221.00,1.31426
221.20,1.36275
221.40,1.37082
221.60,1.36347
221.80,1.38367
222.00,1.41977
222.20,1.41157
222.40,1.41602
222.60,1.44285
222.80,1.46613
223.00,1.46629
223.20,1.49133
223.40,1.51334
223.60,1.53320
223.80,1.55318
224.00,1.58104
224.20,1.61165
224.40,1.64873
224.60,1.67750
224.80,1.70409
225.00,1.73395
225.20,1.77234
225.40,1.80164
225.60,1.84076
225.80,1.87587
226.00,1.90651
226.20,1.93093
226.40,1.95783
226.60,1.98357
226.80,2.02870
227.00,2.07384
227.20,2.12953
227.40,2.18377
227.60,2.23633
227.80,2.26441
228.00,2.30420
228.20,2.34636
228.40,2.38602
228.60,2.41770
228.80,2.47886
229.00,2.52558
229.20,2.54742
229.40,2.58479
229.60,2.64717
229.80,2.67943
230.00,2.74099
230.20,2.79649
230.40,2.85594
230.60,2.91164
230.80,2.97500
231.00,2.99543
231.20,3.07299
231.40,3.13142
231.60,3.18998
231.80,3.24804
232.00,3.34082
232.20,3.40345
232.40,3.46816
232.60,3.53865
232.80,3.60543
233.00,3.66608
233.20,3.71273
233.40,3.77239
233.60,3.82135
233.80,3.88025
234.00,3.95452
234.20,4.05275
234.40,4.15023
234.60,4.24648
234.80,4.33744
235.00,4.40838
235.20,4.47084
235.40,4.53728
235.60,4.60427
235.80,4.67433
236.00,4.76459
236.20,4.86949
236.40,4.96831
236.60,5.04857
236.80,5.15245
237.00,5.23756
237.20,5.32523
237.40,5.41729
237.60,5.53099
237.80,5.63216
238.00,5.73656
238.20,5.82722
238.40,5.90401
238.60,6.01364
238.80,6.14046
239.00,6.23398
239.20,6.36464
239.40,6.49287
239.60,6.56848
239.80,6.66182
240.00,6.76677
240.20,6.86166
240.40,6.96241
240.60,7.07845
240.80,7.16283
241.00,7.28350
241.20,7.39057
241.40,7.53635
241.60,7.65989
241.80,7.79108
242.00,7.91416
242.20,8.01863
242.40,8.12928
242.60,8.26279
242.80,8.40710
243.00,8.55510
243.20,8.69496
243.40,8.81293
243.60,8.97494
243.80,9.13651
244.00,9.26613
244.20,9.44737
244.40,9.60076
244.60,9.73802
244.80,9.85977
245.00,10.02131
245.20,10.15351
245.40,10.32233
245.60,10.45884
245.80,10.62229
246.00,10.79418
246.20,10.95953
246.40,11.13146
246.60,11.32041
246.80,11.47826
247.00,11.62321
247.20,11.77209
247.40,11.92631
247.60,12.06180
247.80,12.26762
248.00,12.48058
248.20,12.66421
248.40,12.84421
248.60,13.05501
248.80,13.22091
249.00,13.39228
249.20,13.60490
249.40,13.79333
249.60,13.98980
249.80,14.18326
250.00,14.39299
250.20,14.59941
250.40,14.81071
250.60,14.99878
250.80,15.19599
251.00,15.40089
251.20,15.61350
251.40,15.85636
251.60,16.10169
251.80,16.32688
252.00,16.53492
252.20,16.77884
252.40,16.97328
252.60,17.21406
252.80,17.44918
253.00,17.67378
253.20,17.89163
253.40,18.16084
253.60,18.37273
253.80,18.61000
254.00,18.86204
254.20,19.12290
254.40,19.36345
254.60,19.60766
254.80,19.86849
255.00,20.13584
255.20,20.36623
255.40,20.59986
255.60,20.86904
255.80,21.12275
256.00,21.36191
256.20,21.61109
256.40,21.85035
256.60,22.09820
256.80,22.33141
257.00,22.60486
257.20,22.83551
257.40,23.14274
257.60,23.37116
257.80,23.65868
258.00,23.91814
258.20,24.20259
258.40,24.42940
258.60,24.72953
258.80,25.01750
259.00,25.27058
259.20,25.52047
259.40,25.79874
259.60,26.05713
259.80,26.29442
260.00,26.53622
260.20,26.84611
260.40,27.11184
260.60,27.34893
260.80,27.60773
261.00,27.91648
261.20,28.18908
261.40,28.47301
261.60,28.80171
261.80,29.08264
262.00,29.38123
262.20,29.68298
262.40,29.96752
262.60,30.24559
262.80,30.58569
263.00,30.85718
263.20,31.11272
263.40,31.35976
263.60,31.64429
263.80,31.84379
264.00,32.12782
264.20,32.43032
264.40,32.77089
264.60,33.01715
264.80,33.37964
265.00,33.61070
265.20,33.87009
265.40,34.09221
265.60,34.34993
265.80,34.60812
266.00,34.89408
266.20,35.15896
266.40,35.43779
266.60,35.73976
266.80,36.01765
267.00,36.32658
267.20,36.62134
267.40,36.94431
267.60,37.25721
267.80,37.53257
268.00,37.80625
268.20,38.10356
268.40,38.39123
268.60,38.64396
268.80,38.92229
269.00,39.20743
269.20,39.44105
269.40,39.72268
269.60,40.04735
269.80,40.31602
270.00,40.63711
270.20,40.97291
270.40,41.24164
270.60,41.47566
270.80,41.80436
271.00,42.07042
271.20,42.34852
271.40,42.66514
271.60,42.99134
271.80,43.25538
272.00,43.49300
272.20,43.73114
272.40,43.95632
272.60,44.26043
272.80,44.43365
273.00,44.63037
273.20,44.91082
273.40,45.22397
273.60,45.44664
273.80,45.77843
274.00,46.06424
274.20,46.29013
274.40,46.47241
274.60,46.68843
274.80,46.93771
275.00,47.23860
275.20,47.44971
275.40,47.70555
275.60,47.93325
275.80,48.09830
276.00,48.35922
276.20,48.66521
276.40,48.91937
276.60,49.14047
276.80,49.45899
277.00,49.66402
277.20,49.79688
277.40,50.02407
277.60,50.32155
277.80,50.49118
278.00,50.68038
278.20,50.94653
278.40,51.15736
278.60,51.27507
278.80,51.49581
279.00,51.72621
279.20,51.87762
279.40,51.98410
279.60,52.18696
279.80,52.33504
280.00,52.50625
280.20,52.71962
280.40,52.97193
280.60,53.19593
280.80,53.37702
281.00,53.59950
281.20,53.75061
281.40,53.94824
281.60,54.11199
281.80,54.29389
282.00,54.38506
282.20,54.54493
282.40,54.65341
282.60,54.88279
282.80,55.08460
283.00,55.21358
283.20,55.43426
283.40,55.60871
283.60,55.71816
283.80,55.87469
284.00,56.07645
284.20,56.16181
284.40,56.31676
284.60,56.49354
284.80,56.64552
285.00,56.84211
285.20,57.09649
285.40,57.25123
285.60,57.32645
285.80,57.43811
286.00,57.52034
286.20,57.65160
286.40,57.71140
286.60,57.89825
286.80,58.01492
287.00,58.10297
287.20,58.20973
287.40,58.43921
287.60,58.51594
287.80,58.61188
288.00,58.81798
288.20,58.94536
288.40,59.00257
288.60,59.10336
288.80,59.30274
289.00,59.41173
289.20,59.46281
289.40,59.61095
289.60,59.72483
289.80,59.84646
290.00,59.95550
290.20,60.09617
290.40,60.18724
290.60,60.25931
290.80,60.26132
291.00,60.26744
291.20,60.33688
291.40,60.40136
291.60,60.49775
291.80,60.56314
292.00,60.70483
292.20,60.75601
292.40,60.85627
292.60,60.91517
292.80,60.90884
293.00,61.00062
293.20,61.06688
293.40,61.10519
293.60,61.17701
293.80,61.36375
294.00,61.39203
294.20,61.45747
294.40,61.40129
294.60,61.47155
294.80,61.52465
295.00,61.58195
295.20,61.69557
295.40,61.84487
295.60,61.95199
295.80,61.98461
296.00,61.97801
296.20,61.95603
296.40,62.06847
296.60,62.06864
296.80,62.17304
297.00,62.26424
297.20,62.36342
297.40,62.36548
297.60,62.48550
297.80,62.54382
298.00,62.58178
298.20,62.58356
298.40,62.59565
298.60,62.48575
298.80,62.49166
299.00,62.57321
299.20,62.65889
299.40,62.78976
299.60,62.95167
299.80,62.88990
300.00,62.91065
300.20,62.90020
300.40,62.82045
300.60,62.80994
300.80,62.90895
301.00,62.93525
301.20,62.97942
301.40,63.11774
301.60,63.14593
301.80,63.15382
302.00,63.12496
302.20,63.17867
302.40,63.11975
302.60,63.18536
302.80,63.20136
303.00,63.29277
303.20,63.27747
303.40,63.26272
303.60,63.23235
303.80,63.26856
304.00,63.23674
304.20,63.24055
304.40,63.26017
304.60,63.29572
304.80,63.38555
305.00,63.39795
305.20,63.42955
305.40,63.40135
305.60,63.43817
305.80,63.36476
306.00,63.41766
306.20,63.34835
306.40,63.37191
306.60,63.33387
306.80,63.36995
307.00,63.35943
307.20,63.49555
307.40,63.49304
307.60,63.44488
307.80,63.43878
308.00,63.41272
308.20,63.34584
308.40,63.41044
308.60,63.48683
308.80,63.45637
309.00,63.47301
309.20,63.41793
309.40,63.43204
309.60,63.40759
309.80,63.42837
310.00,63.33547
310.20,63.34553
310.40,63.34785
310.60,63.29954
310.80,63.31631
311.00,63.40182
311.20,63.46231
311.40,63.36918
311.60,63.40473
311.80,63.39317
312.00,63.40591
312.20,63.33337
312.40,63.42390
312.60,63.41282
312.80,63.40715
313.00,63.49007
313.20,63.51119
313.40,63.49506
313.60,63.48458
313.80,63.49784
314.00,63.44708
314.20,63.45190
314.40,63.33404
314.60,63.31971
314.80,63.27419
315.00,63.22522
315.20,63.17470
315.40,63.21664
315.60,63.18666
315.80,63.18210
316.00,63.14629
316.20,63.11934
316.40,63.14502
316.60,63.14306
316.80,63.09612
317.00,63.11191
317.20,63.09792
317.40,63.10171
317.60,63.09391
317.80,63.17592
318.00,63.17493
318.20,63.20606
318.40,63.23303
318.60,63.31408
318.80,63.26061
319.00,63.30270
319.20,63.21612
319.40,63.24239
319.60,63.15688
319.80,63.13855
320.00,63.05910
320.20,63.21352
320.40,63.11380
320.60,63.16648
320.80,63.23955
321.00,63.21726
321.20,63.19485
321.40,63.23580
321.60,63.23537
321.80,63.15792
322.00,63.12727
322.20,63.03466
322.40,63.05182
322.60,63.01172
322.80,63.06143
323.00,63.13120
323.20,63.27221
323.40,63.23266
323.60,63.16009
323.80,63.13140
324.00,63.15011
324.20,63.07166
324.40,63.08668
324.60,63.11649
324.80,63.04803
325.00,63.04406
325.20,63.01272
325.40,62.99508
325.60,63.16433
325.80,63.22228
326.00,63.18706
326.20,63.20509
326.40,63.16911
326.60,63.08582
326.80,63.02626
327.00,62.95341
327.20,62.97305
327.40,62.95117
327.60,62.90138
327.80,62.85128
328.00,62.83663
328.20,62.88303
328.40,62.81303
328.60,62.77034
328.80,62.80611
329.00,62.84901
329.20,62.76858
329.40,62.85930
329.60,62.91826
329.80,62.93397
330.00,62.89672
330.20,62.91893
330.40,62.91401
330.60,62.83168
330.80,62.87113
331.00,62.86778
331.20,62.82852
331.40,62.83668
331.60,62.80999
331.80,62.80336
332.00,62.78341
332.20,62.79615
332.40,62.79957
332.60,62.84506
332.80,62.88691
333.00,62.94701
333.20,62.85701
333.40,62.86003
333.60,62.90327
333.80,62.74951
334.00,62.69563
334.20,62.78757
334.40,62.79240
334.60,62.67374
334.80,62.83381
335.00,62.89386
335.20,62.82747
335.40,62.90745
335.60,62.99933
335.80,62.91552
336.00,62.79476
336.20,62.82497
336.40,62.69963
336.60,62.70058
336.80,62.66256
337.00,62.75951
337.20,62.71822
337.40,62.72618
337.60,62.67279
337.80,62.70130
338.00,62.70704
338.20,62.74502
338.40,62.70451
338.60,62.73406
338.80,62.74028
339.00,62.69648
339.20,62.70817
339.40,62.75036
339.60,62.66410
339.80,62.66536
340.00,62.67221
340.20,62.63105
340.40,62.56513
340.60,62.63936
340.80,62.58695
341.00,62.59341
341.20,62.62816
341.40,62.68075
341.60,62.66625
341.80,62.68516
342.00,62.68901
342.20,62.64782
342.40,62.61900
342.60,62.59769
342.80,62.60275
343.00,62.60651
343.20,62.61042
343.40,62.71948
343.60,62.74679
343.80,62.74899
344.00,62.70416
344.20,62.74957
344.40,62.66164
344.60,62.67354
344.80,62.65299
345.00,62.69982
345.20,62.73323
345.40,62.71845
345.60,62.67118
345.80,62.64806
346.00,62.65333
346.20,62.56420
346.40,62.56659
346.60,62.57256
346.80,62.59472
347.00,62.57314
347.20,62.59417
347.40,62.65931
347.60,62.64735
347.80,62.69243
348.00,62.67790
348.20,62.70294
348.40,62.61381
348.60,62.63929
348.80,62.65217
349.00,62.60499
349.20,62.60372
349.40,62.62459
349.60,62.59744
349.80,62.58219
350.00,62.66059
350.20,62.66235
350.40,62.68234
350.60,62.68303
350.80,62.66604
351.00,62.63992
351.20,62.66330
351.40,62.71582
351.60,62.75650
351.80,62.78333
352.00,62.82289
352.20,62.76923
352.40,62.75576
352.60,62.74458
352.80,62.69238
353.00,62.63595
353.20,62.61964
353.40,62.58699
353.60,62.61616
353.80,62.65528
354.00,62.63743
354.20,62.68276
354.40,62.69333
354.60,62.64610
354.80,62.58649
355.00,62.64712
355.20,62.63459
355.40,62.58100
355.60,62.58465
355.80,62.68600
356.00,62.68114
356.20,62.70713
356.40,62.73270
356.60,62.77000
356.80,62.69138
357.00,62.68089
357.20,62.67123
357.40,62.68930
357.60,62.67910
357.80,62.69182
358.00,62.71275
358.20,62.70162
358.40,62.70202
358.60,62.66802
358.80,62.65391
359.00,62.58311
359.20,62.59163
359.40,62.60206
359.60,62.63536
359.80,62.64246
360.00,62.72274
360.20,62.72893
360.40,62.72570
360.60,62.68290
360.80,62.69009
361.00,62.72119
361.20,62.66476
361.40,62.62913
361.60,62.66954
361.80,62.68284
362.00,62.58916
362.20,62.65608
362.40,62.67543
362.60,62.64545
362.80,62.68613
363.00,62.71353
363.20,62.68682
363.40,62.68365
363.60,62.73109
363.80,62.67186
364.00,62.71537
364.20,62.69641
364.40,62.73659
364.60,62.75533
364.80,62.77007
365.00,62.71219
365.20,62.81636
365.40,62.75564
365.60,62.75051
365.80,62.75410
366.00,62.78565
366.20,62.76420
366.40,62.78450
366.60,62.78376
366.80,62.81124
367.00,62.76607
367.20,62.67672
367.40,62.72739
367.60,62.75259
367.80,62.71641
368.00,62.78993
368.20,62.81285
368.40,62.75950
368.60,62.75132
368.80,62.80400
369.00,62.81600
369.20,62.82185
369.40,62.82235
369.60,62.75940
369.80,62.78646
370.00,62.72461
370.20,62.70122
370.40,62.72330
370.60,62.81019
370.80,62.75387
371.00,62.79501
371.20,62.85300
371.40,62.81265
371.60,62.80310
371.80,62.79276
372.00,62.77141
372.20,62.80205
372.40,62.92170
372.60,62.91937
372.80,62.98478
373.00,63.01159
373.20,63.05264
373.40,63.01242
373.60,62.98639
373.80,62.95373
374.00,62.97785
374.20,62.90805
374.40,62.89065
374.60,62.97479
374.80,62.96623
375.00,62.94930
375.20,62.98274
375.40,62.98872
375.60,62.93632
375.80,62.97877
376.00,62.98252
376.20,62.95244
376.40,62.98301
376.60,63.02044
376.80,63.01634
377.00,63.02957
377.20,63.08451
377.40,63.11735
377.60,63.09333
377.80,63.10990
378.00,63.12980
378.20,63.14038
378.40,63.13561
378.60,63.13222
378.80,63.13748
379.00,63.14598
379.20,63.15329
379.40,63.16356
379.60,63.21896
379.80,63.18794
380.00,63.21869
380.20,63.20631
380.40,63.20521
380.60,63.21625
380.80,63.27463
381.00,63.26951
381.20,63.31179
381.40,63.33823
381.60,63.31871
381.80,63.28718
382.00,63.28263
382.20,63.27040
382.40,63.27586
382.60,63.26683
382.80,63.30137
383.00,63.33671
383.20,63.31924
383.40,63.28771
383.60,63.30898
383.80,63.31144
384.00,63.32325
384.20,63.32495
384.40,63.37026
384.60,63.43162
384.80,63.46693
385.00,63.46145
385.20,63.50601
385.40,63.52074
385.60,63.46308
385.80,63.47266
386.00,63.50676
386.20,63.52751
386.40,63.54318
386.60,63.57000
386.80,63.55985
387.00,63.53434
387.20,63.49109
387.40,63.47305
387.60,63.46501
387.80,63.48320
388.00,63.55985
388.20,63.60511
388.40,63.62500
388.60,63.67601
388.80,63.72004
389.00,63.67946
389.20,63.69326
389.40,63.74736
389.60,63.75172
389.80,63.71588
390.00,63.70473
390.20,63.70488
390.40,63.69035
390.60,63.66419
390.80,63.70121
391.00,63.71226
391.20,63.74689
391.40,63.77546
391.60,63.81410
391.80,63.86746
392.00,63.92722
392.20,63.94926
392.40,63.92571
392.60,63.96284
392.80,63.91503
393.00,63.88018
393.20,63.88954
393.40,63.92340
393.60,63.94640
393.80,63.96470
394.00,63.96887
394.20,63.97312
394.40,63.98279
394.60,63.97722
394.80,63.98710
395.00,64.03140
395.20,64.01613
395.40,64.01459
395.60,63.98484
395.80,64.03117
396.00,64.03108
396.20,64.03674
396.40,64.07809
396.60,64.13311
396.80,64.13274
397.00,64.14356
397.20,64.18939
397.40,64.20770
397.60,64.17741
397.80,64.16316
398.00,64.20389
398.20,64.20637
398.40,64.17201
398.60,64.18730
398.80,64.24581
399.00,64.26191
399.20,64.30293
399.40,64.31956
399.60,64.36354
399.80,64.37050
400.00,64.37308
400.20,64.37992
400.40,64.42364
400.60,64.45100
400.80,64.42440
401.00,64.40707
401.20,64.41072
401.40,64.44829
401.60,64.46117
401.80,64.50526
402.00,64.53705
402.20,64.58364
402.40,64.56925
402.60,64.57505
402.80,64.56550
403.00,64.58449
403.20,64.55763
403.40,64.53483
403.60,64.60018
403.80,64.61533
404.00,64.62239
404.20,64.62250
404.40,64.66585
404.60,64.63882
404.80,64.66959
405.00,64.68652
405.20,64.73119
405.40,64.72857
405.60,64.74951
405.80,64.77552
406.00,64.79490
406.20,64.78139
406.40,64.85552
406.60,64.86685
406.80,64.88176
407.00,64.90896
407.20,64.90442
407.40,64.92571
407.60,64.95171
407.80,64.98758
408.00,65.01765
408.20,65.08675
408.40,65.06584
408.60,65.09612
408.80,65.10419
409.00,65.12312
409.20,65.12445
409.40,65.14304
409.60,65.14267
409.80,65.14074
410.00,65.15086
410.20,65.17882
410.40,65.17702
410.60,65.18074
410.80,65.21053
411.00,65.25255
411.20,65.27296
411.40,65.28339
411.60,65.29390
411.80,65.29661
412.00,65.28119
412.20,65.30474
412.40,65.34798
412.60,65.36030
412.80,65.39917
413.00,65.43388
413.20,65.48222
413.40,65.51695
413.60,65.54354
413.80,65.55724
414.00,65.57665
414.20,65.58732
414.40,65.61937
414.60,65.63749
414.80,65.65141
415.00,65.67571
415.20,65.71016
415.40,65.70745
415.60,65.73988
415.80,65.75782
416.00,65.77865
416.20,65.77550
416.40,65.81874
416.60,65.86292
416.80,65.89993
417.00,65.92214
417.20,65.95051
417.40,66.00340
417.60,66.02533
417.80,66.06915
418.00,66.12521
418.20,66.14227
418.40,66.12779
418.60,66.14964
418.80,66.14581
419.00,66.15925
419.20,66.17178
419.40,66.18783
419.60,66.20325
419.80,66.24485
420.00,66.24792
420.20,66.26915
420.40,66.31612
420.60,66.32816
420.80,66.38483
421.00,66.43172
421.20,66.49974
421.40,66.55251
421.60,66.59664
421.80,66.60671
422.00,66.60868
422.20,66.62192
422.40,66.60660
422.60,66.63340
422.80,66.64870
423.00,66.72563
423.20,66.75519
423.40,66.77616
423.60,66.80824
423.80,66.85908
424.00,66.85162
424.20,66.90466
424.40,66.96162
424.60,67.01516
424.80,67.00521
425.00,67.04141
425.20,67.02551
425.40,67.02902
425.60,67.02451
425.80,67.07308
426.00,67.07953
426.20,67.11565
426.40,67.16409
426.60,67.20343
426.80,67.23793
427.00,67.26811
427.20,67.27809
427.40,67.27837
427.60,67.33192
427.80,67.31926
428.00,67.35956
428.20,67.38606
428.40,67.39815
428.60,67.37465
428.80,67.43038
429.00,67.41604
429.20,67.41832
429.40,67.45883
429.60,67.47212
429.80,67.44916
430.00,67.47447
430.20,67.52174
430.40,67.53674
430.60,67.58516
430.80,67.63353
431.00,67.64338
431.20,67.67688
431.40,67.66949
431.60,67.65659
431.80,67.67471
432.00,67.71960
432.20,67.71112
432.40,67.76422
432.60,67.78851
432.80,67.81248
433.00,67.80977
433.20,67.84989
433.40,67.86775
433.60,67.90472
433.80,67.87447
434.00,67.89502
434.20,67.88302
434.40,67.89070
434.60,67.86662
434.80,67.92771
435.00,67.94856
435.20,67.97807
435.40,67.97129
435.60,68.01314
435.80,68.02049
436.00,68.03225
436.20,68.06653
436.40,68.09959
436.60,68.14094
436.80,68.13557
437.00,68.16005
437.20,68.16230
437.40,68.18837
437.60,68.17173
437.80,68.22433
438.00,68.24713
438.20,68.24335
438.40,68.26738
438.60,68.27921
438.80,68.26777
439.00,68.27741
439.20,68.31334
439.40,68.31523
439.60,68.33905
439.80,68.33026
440.00,68.36954
440.20,68.40572
440.40,68.39676
440.60,68.42504
440.80,68.45886
441.00,68.44734
441.20,68.42525
441.40,68.46536
441.60,68.49182
441.80,68.52812
442.00,68.53423
442.20,68.55260
442.40,68.54962
442.60,68.50349
442.80,68.48118
443.00,68.47009
443.20,68.48479
443.40,68.49390
443.60,68.50678
443.80,68.53660
444.00,68.60418
444.20,68.60968
444.40,68.63289
444.60,68.66005
444.80,68.66299
445.00,68.65333
445.20,68.67163
445.40,68.67869
445.60,68.70286
445.80,68.71385
446.00,68.72779
446.20,68.71867
446.40,68.75149
446.60,68.75883
446.80,68.78821
447.00,68.81142
447.20,68.84027
447.40,68.81283
447.60,68.84854
447.80,68.85388
448.00,68.86343
448.20,68.88066
448.40,68.93616
448.60,68.94994
448.80,68.98364
449.00,68.98968
449.20,68.99256
449.40,69.00130
449.60,69.00827
449.80,68.99190
450.00,68.99403
450.20,69.00769
450.40,68.98394
450.60,68.99771
450.80,69.02962
451.00,69.04563
451.20,69.06349
451.40,69.10847
451.60,69.10450
451.80,69.09953
452.00,69.11668
452.20,69.11267
452.40,69.11907
452.60,69.15039
452.80,69.20760
453.00,69.22267
453.20,69.25834
453.40,69.26205
453.60,69.28955
453.80,69.25569
454.00,69.27071
454.20,69.27118
454.40,69.28481
454.60,69.27602
454.80,69.30646
455.00,69.28166
455.20,69.28151
455.40,69.29755
455.60,69.33156
455.80,69.32142
456.00,69.36319
456.20,69.40141
456.40,69.40492
456.60,69.37730
456.80,69.41367
457.00,69.44032
457.20,69.45766
457.40,69.48316
457.60,69.53104
457.80,69.53732
458.00,69.53324
458.20,69.54016
458.40,69.53661
458.60,69.53848
458.80,69.55363
459.00,69.55640
459.20,69.56233
459.40,69.58267
459.60,69.57066
459.80,69.56973
460.00,69.56770
460.20,69.59171
460.40,69.59056
460.60,69.61845
460.80,69.61651
461.00,69.63615
461.20,69.60918
461.40,69.63338
461.60,69.64480
461.80,69.67250
462.00,69.70817
462.20,69.74148
462.40,69.75488
462.60,69.75628
462.80,69.76784
463.00,69.78019
463.20,69.77596
463.40,69.76588
463.60,69.80946
463.80,69.82413
464.00,69.83040
464.20,69.85534
464.40,69.84890
464.60,69.80653
464.80,69.81297
465.00,69.81291
465.20,69.81751
465.40,69.84790
465.60,69.90114
465.80,69.90664
466.00,69.89094
466.20,69.91051
466.40,69.92188
466.60,69.88397
466.80,69.88522
467.00,69.88583
467.20,69.89393
467.40,69.91280
467.60,69.96251
467.80,69.98851
468.00,70.03943
468.20,70.05211
468.40,70.04879
468.60,70.06454
468.80,70.08653
469.00,70.08126
469.20,70.06576
469.40,70.10548
469.60,70.08830
469.80,70.09580
470.00,70.09658
470.20,70.13344
470.40,70.12599
470.60,70.13375
470.80,70.12623
471.00,70.16637
471.20,70.19289
471.40,70.19290
471.60,70.19741
471.80,70.20904
472.00,70.22526
472.20,70.20466
472.40,70.22572
472.60,70.25216
472.80,70.26589
473.00,70.24486
473.20,70.25127
473.40,70.24664
473.60,70.26128
473.80,70.29163
474.00,70.29937
474.20,70.33165
474.40,70.35760
474.60,70.36496
474.80,70.34970
475.00,70.38762
475.20,70.37798
475.40,70.37748
475.60,70.36827
475.80,70.37858
476.00,70.39342
476.20,70.39258
476.40,70.41711
476.60,70.43127
476.80,70.44154
477.00,70.44165
477.20,70.47765
477.40,70.48191
477.60,70.49846
477.80,70.51142
478.00,70.51868
478.20,70.52020
478.40,70.52642
478.60,70.53989
478.80,70.53900
479.00,70.54718
479.20,70.54636
479.40,70.53936
479.60,70.55046
479.80,70.57240
480.00,70.57503
480.20,70.58005
480.40,70.60850
480.60,70.59217
480.80,70.58405
481.00,70.59281
481.20,70.59642
481.40,70.60214
481.60,70.61291
481.80,70.61661
482.00,70.62005
482.20,70.64722
482.40,70.64159
482.60,70.65685
482.80,70.68226
483.00,70.67665
483.20,70.66299
483.40,70.68364
483.60,70.69844
483.80,70.72002
484.00,70.73937
484.20,70.73123
484.40,70.72636
484.60,70.72427
484.80,70.70915
485.00,70.70298
485.20,70.74105
485.40,70.75948
485.60,70.78757
485.80,70.78699
486.00,70.82219
486.20,70.82407
486.40,70.82163
486.60,70.84553
486.80,70.84692
487.00,70.84830
487.20,70.83659
487.40,70.85880
487.60,70.83728
487.80,70.87666
488.00,70.87367
488.20,70.90302
488.40,70.89366
488.60,70.91317
488.80,70.88689
489.00,70.89639
489.20,70.89641
489.40,70.88472
489.60,70.88227
489.80,70.90092
490.00,70.90051
490.20,70.89932
490.40,70.95209
490.60,70.94748
490.80,70.94460
491.00,70.96702
491.20,70.99996
491.40,70.98332
491.60,70.98272
491.80,70.99182
492.00,70.98083
492.20,70.96096
492.40,70.96953
492.60,70.99642
492.80,71.00437
493.00,71.02568
493.20,71.05636
493.40,71.06082
493.60,71.04307
493.80,71.04207
494.00,71.04492
494.20,71.02362
494.40,71.01791
494.60,71.04121
494.80,71.06767
495.00,71.06755
495.20,71.07359
495.40,71.09799
495.60,71.09240
495.80,71.08458
496.00,71.09004
496.20,71.11443
496.40,71.10675
496.60,71.11312
496.80,71.13167
497.00,71.11473
497.20,71.13243
497.40,71.14982
497.60,71.17454
497.80,71.18629
498.00,71.21201
498.20,71.21140
498.40,71.21627
498.60,71.20488
498.80,71.18385
499.00,71.19782
499.20,71.17985
499.40,71.20429
499.60,71.20915
499.80,71.21587
500.00,71.21563
500.20,71.22636
500.40,71.22701
500.60,71.24007
500.80,71.25704
501.00,71.28419
501.20,71.29985
501.40,71.28810
501.60,71.29893
501.80,71.29859
502.00,71.27686
502.20,71.27201
502.40,71.27259
502.60,71.27062
502.80,71.25843
503.00,71.27154
503.20,71.26983
503.40,71.26527
503.60,71.24046
503.80,71.25370
504.00,71.25421
504.20,71.26330
504.40,71.28271
504.60,71.33339
504.80,71.33539
505.00,71.33858
505.20,71.35490
505.40,71.36383
505.60,71.36552
505.80,71.40085
506.00,71.42519
506.20,71.43375
506.40,71.41472
506.60,71.41619
506.80,71.39553
507.00,71.39437
507.20,71.38249
507.40,71.37514
507.60,71.37323
507.80,71.38759
508.00,71.37861
508.20,71.38475
508.40,71.43123
508.60,71.42084
508.80,71.43074
509.00,71.42220
509.20,71.44125
509.40,71.42826
509.60,71.43168
509.80,71.43164
510.00,71.45637
510.20,71.46780
510.40,71.47029
510.60,71.48991
510.80,71.50677
511.00,71.48361
511.20,71.46247
511.40,71.46511
511.60,71.45247
511.80,71.43189
512.00,71.45903
512.20,71.46901
512.40,71.47565
512.60,71.48619
512.80,71.49748
513.00,71.48651
513.20,71.49165
513.40,71.50812
513.60,71.52333
513.80,71.52431
514.00,71.53059
514.20,71.54803
514.40,71.55513
514.60,71.55644
514.80,71.56243
515.00,71.57401
515.20,71.55808
515.40,71.55434
515.60,71.56038
515.80,71.56230
516.00,71.57875
516.20,71.60124
516.40,71.59972
516.60,71.59492
516.80,71.61056
517.00,71.60318
517.20,71.61536
517.40,71.63702
517.60,71.66449
517.80,71.65228
518.00,71.66247
518.20,71.63125
518.40,71.62260
518.60,71.58132
518.80,71.58052
519.00,71.58142
519.20,71.59753
519.40,71.61180
519.60,71.62704
519.80,71.64015
520.00,71.66753
520.20,71.67799
520.40,71.65239
520.60,71.65108
520.80,71.66288
521.00,71.63442
521.20,71.63435
521.40,71.63080
521.60,71.64391
521.80,71.63571
522.00,71.62606
522.20,71.62791
522.40,71.66075
522.60,71.66404
522.80,71.67178
523.00,71.67838
523.20,71.68866
523.40,71.68675
523.60,71.71083
523.80,71.71577
524.00,71.71996
524.20,71.71602
524.40,71.71096
524.60,71.69138
524.80,71.69307
525.00,71.72050
525.20,71.73544
525.40,71.74977
525.60,71.74162
525.80,71.73890
526.00,71.71227
526.20,71.70693
526.40,71.69688
526.60,71.71468
526.80,71.74612
527.00,71.79271
527.20,71.77141
527.40,71.76046
527.60,71.77824
527.80,71.76768
528.00,71.72614
528.20,71.75608
528.40,71.77492
528.60,71.75214
528.80,71.74593
529.00,71.76422
529.20,71.76280
529.40,71.76766
529.60,71.78169
529.80,71.76919
530.00,71.75840
530.20,71.75350
530.40,71.75270
530.60,71.74236
530.80,71.73322
531.00,71.74776
531.20,71.73830
531.40,71.75405
531.60,71.75896
531.80,71.79394
532.00,71.76596
532.20,71.76630
532.40,71.73905
532.60,71.75282
532.80,71.72433
533.00,71.73296
533.20,71.73582
533.40,71.75092
533.60,71.75034
533.80,71.79573
534.00,71.80043
534.20,71.82859
534.40,71.83522
534.60,71.81082
534.80,71.79263
535.00,71.81151
535.20,71.79093
535.40,71.79541
535.60,71.81545
535.80,71.80098
536.00,71.80452
536.20,71.81706
536.40,71.80222
536.60,71.80687
536.80,71.80863
537.00,71.78800
537.20,71.78572
537.40,71.79750
537.60,71.79728
537.80,71.81630
538.00,71.83968
538.20,71.84020
538.40,71.85457
538.60,71.85673
538.80,71.85216
539.00,71.85591
539.20,71.85734
539.40,71.85152
539.60,71.84239
539.80,71.85396
540.00,71.85253
540.20,71.85713
540.40,71.84816
540.60,71.85565
540.80,71.84377
541.00,71.84541
541.20,71.84249
541.40,71.83618
541.60,71.81895
541.80,71.82723
542.00,71.83831
542.20,71.83194
542.40,71.83067
542.60,71.86641
542.80,71.86928
543.00,71.86834
543.20,71.88829
543.40,71.90867
543.60,71.89291
543.80,71.89317
544.00,71.88883
544.20,71.87616
544.40,71.86805
544.60,71.85699
544.80,71.85596
545.00,71.84059
545.20,71.82491
545.40,71.83444
545.60,71.86314
545.80,71.86534
546.00,71.87629
546.20,71.90337
546.40,71.88621
546.60,71.88625
546.80,71.86939
547.00,71.87538
547.20,71.85693
547.40,71.88502
547.60,71.88478
547.80,71.90895
548.00,71.93217
548.20,71.96004
548.40,71.94203
548.60,71.94043
548.80,71.93455
549.00,71.91591
549.20,71.92244
549.40,71.91455
549.60,71.90683
549.80,71.90190
550.00,71.90301
550.20,71.88724
550.40,71.90375
550.60,71.90859
550.80,71.94826
551.00,71.93543
551.20,71.93268
551.40,71.92320
551.60,71.93047
551.80,71.88237
552.00,71.90965
552.20,71.91337
552.40,71.92711
552.60,71.91464
552.80,71.92219
553.00,71.90293
553.20,71.90313
553.40,71.89988
553.60,71.91498
553.80,71.91413
554.00,71.92012
554.20,71.92610
554.40,71.91661
554.60,71.91497
554.80,71.91958
555.00,71.91858
555.20,71.90702
555.40,71.90875
555.60,71.90962
555.80,71.89429
556.00,71.88640
556.20,71.90163
556.40,71.90059
556.60,71.89510
556.80,71.92497
557.00,71.93716
557.20,71.91563
557.40,71.90941
557.60,71.91421
557.80,71.88900
558.00,71.87630
558.20,71.89326
558.40,71.91933
558.60,71.90961
558.80,71.91924
559.00,71.91540
559.20,71.91356
559.40,71.90298
559.60,71.92609
559.80,71.92448
560.00,71.94660
560.20,71.92931
560.40,71.92745
560.60,71.91025
560.80,71.91759
561.00,71.90892
561.20,71.94988
561.40,71.96449
561.60,71.97608
561.80,71.98674
562.00,71.99133
562.20,71.99603
562.40,71.99074
562.60,71.99093
562.80,71.96593
563.00,71.95122
563.20,71.91805
563.40,71.92156
563.60,71.92641
563.80,71.92690
564.00,71.93321
564.20,71.92578
564.40,71.92497
564.60,71.92386
564.80,71.92293
565.00,71.92807
565.20,71.92996
565.40,71.92079
565.60,71.91072
565.80,71.92262
566.00,71.91185
566.20,71.93377
566.40,71.94581
566.60,71.94603
566.80,71.94712
567.00,71.96582
567.20,71.97269
567.40,71.99708
567.60,71.99546
567.80,72.00342
568.00,71.99083
568.20,71.98848
568.40,71.97298
568.60,71.98312
568.80,71.98058
569.00,72.00551
569.20,71.98502
569.40,71.96849
569.60,71.94721
569.80,71.93388
570.00,71.92814
570.20,71.94222
570.40,71.93137
570.60,71.96028
570.80,71.98686
571.00,71.97127
571.20,71.97897
571.40,71.99077
571.60,71.97347
571.80,71.98551
572.00,71.97694
572.20,71.97354
572.40,71.96114
572.60,71.97520
572.80,71.95486
573.00,71.97890
573.20,71.97318
573.40,71.97838
573.60,71.96153
573.80,71.95988
574.00,71.94371
574.20,71.93028
574.40,71.93660
574.60,71.93307
574.80,71.93102
575.00,71.93648
575.20,71.95066
575.40,71.93447
575.60,71.95091
575.80,71.95663
576.00,71.94517
576.20,71.95078
576.40,71.99029
576.60,72.01198
576.80,71.99348
577.00,71.97966
577.20,71.98879
577.40,71.97511
577.60,71.96004
577.80,71.98271
578.00,72.02080
578.20,72.01840
578.40,72.02249
578.60,72.01269
578.80,72.00902
579.00,71.99539
579.20,71.99628
579.40,72.00328
579.60,72.01186
579.80,72.01449
580.00,72.02162
580.20,72.02205
580.40,72.00772
580.60,72.01492
580.80,72.01253
581.00,72.02325
581.20,72.01614
581.40,72.00730
581.60,72.00767
581.80,72.00518
582.00,71.99296
582.20,71.99694
582.40,72.02753
582.60,72.00021
582.80,72.00425
583.00,72.00285
583.20,71.99109
583.40,71.97334
583.60,72.00477
583.80,72.01503
584.00,72.02404
584.20,72.01256
584.40,72.01198
584.60,71.98457
584.80,71.98091
585.00,71.94688
585.20,71.95157
585.40,71.94231
585.60,71.92897
585.80,71.92710
586.00,71.95582
586.20,71.95051
586.40,71.95688
586.60,72.00522
586.80,72.01258
587.00,72.01691
587.20,72.04086
587.40,72.04834
587.60,72.03203
587.80,72.02358
588.00,72.02239
588.20,71.99711
588.40,72.00434
588.60,72.00314
588.80,71.98983
589.00,71.98070
589.20,72.00999
589.40,71.99639
589.60,71.99513
589.80,72.00115
590.00,72.00992
590.20,71.98423
590.40,71.96802
590.60,71.97455
590.80,71.96450
591.00,71.96175
591.20,71.98141
591.40,71.98991
591.60,71.95544
591.80,71.96557
592.00,71.99104
592.20,71.98546
592.40,71.98588
592.60,72.00855
592.80,72.01946
593.00,71.99516
593.20,71.97963
593.40,72.00222
593.60,72.00509
593.80,72.00394
594.00,72.00088
594.20,72.01576
594.40,72.01149
594.60,72.00051
594.80,71.99711
595.00,72.01015
595.20,72.01617
595.40,72.00481
595.60,72.01656
595.80,72.04298
596.00,72.05043
596.20,72.04162
596.40,72.05135
596.60,72.04176
596.80,72.03081
597.00,72.01903
597.20,72.03886
597.40,72.03105
597.60,72.03879
597.80,71.98803
598.00,71.96507
598.20,71.96818
598.40,71.96780
598.60,71.97368
598.80,72.00824
599.00,72.03720
599.20,72.02527
599.40,72.00882
599.60,72.02369
599.80,72.01206
600.00,71.99595
600.20,72.00195
600.40,72.04284
600.60,72.02255
600.80,72.04330
601.00,72.06629
601.20,72.04295
601.40,72.00730
601.60,72.00983
601.80,72.01096
602.00,71.99650
602.20,72.02080
602.40,72.03212
602.60,72.01785
602.80,71.98284
603.00,71.98564
603.20,71.95761
603.40,71.97831
603.60,71.99162
603.80,72.00505
604.00,72.00184
604.20,72.04530
604.40,72.02205
604.60,72.01396
604.80,72.01979
605.00,72.01144
605.20,72.00257
605.40,71.99448
605.60,71.99379
605.80,71.97934
606.00,71.97505
606.20,71.94980
606.40,71.96296
606.60,71.95314
606.80,71.97182
607.00,71.97154
607.20,71.98749
607.40,71.96840
607.60,71.96780
607.80,71.97102
608.00,71.96764
608.20,71.95939
608.40,71.96729
608.60,71.99392
608.80,71.99539
609.00,72.04179
609.20,72.03264
609.40,72.03349
609.60,72.02348
609.80,72.02644
610.00,72.00645
610.20,72.01902
610.40,72.01278
610.60,72.00140
610.80,72.00216
611.00,71.98375
611.20,71.94666
611.40,71.95427
611.60,71.96497
611.80,71.94860
612.00,71.94470
612.20,71.97709
612.40,71.98777
612.60,71.98849
612.80,72.01917
613.00,72.01093
613.20,72.01541
613.40,72.02141
613.60,72.01829
613.80,71.98213
614.00,72.02275
614.20,72.03514
614.40,72.00389
614.60,72.01040
614.80,72.03352
615.00,72.01535
615.20,72.01925
615.40,72.03346
615.60,72.04009
615.80,72.02081
616.00,72.00218
616.20,71.98582
616.40,71.99742
616.60,72.00133
616.80,72.00341
617.00,72.02153
617.20,72.03310
617.40,72.03167
617.60,72.03863
617.80,72.07931
618.00,72.04565
618.20,72.03222
618.40,72.02653
618.60,72.00386
618.80,71.97188
619.00,71.97903
619.20,71.96154
619.40,71.97342
619.60,71.98405
619.80,71.99895
620.00,72.00295
620.20,72.00366
620.40,71.99752
620.60,71.98942
620.80,71.96195
621.00,71.96355
621.20,71.98300
621.40,71.99849
621.60,71.99972
621.80,72.04372
622.00,72.06917
622.20,72.04758
622.40,72.02346
622.60,72.01729
622.80,71.98070
623.00,71.98076
623.20,72.03269
623.40,72.05437
623.60,72.05765
623.80,72.06007
624.00,72.05693
624.20,72.01415
624.40,71.99445
624.60,71.97420
624.80,71.97032
625.00,71.97084
625.20,71.97392
625.40,71.99040
625.60,72.00949
625.80,72.00865
626.00,72.00762
626.20,72.00825
626.40,71.99646
626.60,71.98110
626.80,71.99503
627.00,71.98281
627.20,71.99827
627.40,72.00581
627.60,72.03633
627.80,72.03718
628.00,72.04472
628.20,72.05931
628.40,72.05489
628.60,72.03633
628.80,72.03206
629.00,72.03333
629.20,72.01750
629.40,71.99976
629.60,72.00527
629.80,71.99996
630.00,72.00262
630.20,72.00354
630.40,72.03461
630.60,72.05604
630.80,72.05190
631.00,72.03600
631.20,72.03892
631.40,72.02786
631.60,71.99135
631.80,71.95874
632.00,71.96350
632.20,71.96670
632.40,71.93394
632.60,71.93837
632.80,71.98408
633.00,71.99056
633.20,71.97754
633.40,72.00483
633.60,72.03726
633.80,72.02032
634.00,71.99968
634.20,72.01179
634.40,72.01539
634.60,71.98910
634.80,71.99400
635.00,72.01202
635.20,71.99135
635.40,72.01090
635.60,72.00167
635.80,72.01277
636.00,72.01137
636.20,72.02989
636.40,72.01250
636.60,72.03429
636.80,72.03712
637.00,72.03389
637.20,72.04025
637.40,72.05641
637.60,72.07345
637.80,72.09074
638.00,72.10393
638.20,72.08590
638.40,72.04239
638.60,72.02232
638.80,71.99979
639.00,72.00925
639.20,72.03723
639.40,72.07841
639.60,72.08096
639.80,72.08982
640.00,72.08510
640.20,72.06063
640.40,72.03420
640.60,72.03541
640.80,72.02960
641.00,72.01866
641.20,72.03076
641.40,72.03816
641.60,72.05349
641.80,72.06669
642.00,72.07587
642.20,72.07605
642.40,72.10007
642.60,72.10453
642.80,72.08536
643.00,72.10712
643.20,72.10690
643.40,72.11723
643.60,72.10802
643.80,72.12844
644.00,72.13028
644.20,72.14067
644.40,72.12371
644.60,72.11906
644.80,72.10456
645.00,72.07224
645.20,72.06846
645.40,72.08595
645.60,72.11925
645.80,72.15838
646.00,72.18378
646.20,72.18044
646.40,72.15449
646.60,72.14255
646.80,72.11561
647.00,72.13161
647.20,72.14578
647.40,72.17618
647.60,72.14900
647.80,72.18295
648.00,72.19646
648.20,72.20247
648.40,72.17516
648.60,72.22994
648.80,72.19890
649.00,72.16583
649.20,72.16242
649.40,72.19198
649.60,72.15124
649.80,72.15192
650.00,72.15170
650.20,72.13766
650.40,72.12849
650.60,72.13482
650.80,72.13900
651.00,72.13452
651.20,72.14020
651.40,72.13001
651.60,72.13962
651.80,72.14089
652.00,72.14797
652.20,72.13936
652.40,72.16091
652.60,72.14471
652.80,72.15819
653.00,72.15473
653.20,72.14964
653.40,72.13333
653.60,72.12971
653.80,72.13148
654.00,72.14870
654.20,72.16091
654.40,72.16762
654.60,72.17715
654.80,72.16176
655.00,72.13780
655.20,72.16048
655.40,72.18043
655.60,72.16933
655.80,72.18418
656.00,72.20112
656.20,72.20886
656.40,72.19464
656.60,72.22440
656.80,72.22273
657.00,72.23780
657.20,72.24043
657.40,72.21788
657.60,72.20194
657.80,72.20176
658.00,72.20525
658.20,72.15449
658.40,72.17171
658.60,72.18127
658.80,72.17737
659.00,72.20791
659.20,72.25835
659.40,72.28295
659.60,72.30445
659.80,72.32778
660.00,72.30424
660.20,72.31709
660.40,72.29621
660.60,72.28415
660.80,72.27513
661.00,72.27904
661.20,72.27377
661.40,72.28356
661.60,72.26532
661.80,72.24221
662.00,72.25835
662.20,72.26593
662.40,72.23508
662.60,72.23496
662.80,72.28943
663.00,72.26300
663.20,72.25107
663.40,72.28222
663.60,72.32925
663.80,72.33656
664.00,72.35575
664.20,72.35187
664.40,72.35380
664.60,72.36507
664.80,72.31418
665.00,72.32149
665.20,72.34786
665.40,72.38374
665.60,72.34985
665.80,72.37715
666.00,72.35451
666.20,72.34903
666.40,72.32631
666.60,72.35519
666.80,72.38879
667.00,72.41510
667.20,72.43590
667.40,72.46206
667.60,72.45628
667.80,72.45138
668.00,72.46405
668.20,72.48747
668.40,72.51184
668.60,72.53118
668.80,72.54674
669.00,72.56447
669.20,72.54027
669.40,72.51357
669.60,72.50010
669.80,72.47715
670.00,72.44098
670.20,72.42584
670.40,72.41464
670.60,72.41830
670.80,72.43994
671.00,72.46340
671.20,72.48766
671.40,72.52666
671.60,72.52251
671.80,72.54561
672.00,72.54579
672.20,72.56865
672.40,72.56963
672.60,72.60134
672.80,72.59334
673.00,72.60808
673.20,72.58397
673.40,72.60860
673.60,72.57657
673.80,72.54718
674.00,72.55094
674.20,72.56167
674.40,72.52364
674.60,72.59090
674.80,72.61232
675.00,72.64995
675.20,72.67717
675.40,72.71873
675.60,72.74252
675.80,72.73967
676.00,72.75047
676.20,72.72682
676.40,72.72568
676.60,72.68087
676.80,72.69119
677.00,72.65484
677.20,72.64014
677.40,72.64134
677.60,72.69099
677.80,72.69296
678.00,72.72383
678.20,72.75946
678.40,72.77100
678.60,72.76394
678.80,72.81383
679.00,72.81326
679.20,72.80388
679.40,72.81968
679.60,72.79640
679.80,72.77709
680.00,72.76040
680.20,72.80495
680.40,72.81260
680.60,72.84214
680.80,72.88257
681.00,72.90375
681.20,72.89478
681.40,72.88302
681.60,72.86774
681.80,72.87367
682.00,72.87505
682.20,72.90510
682.40,72.91715
682.60,72.96578
682.80,72.95917
683.00,72.97062
683.20,72.99961
683.40,73.02015
683.60,73.04659
683.80,73.06224
684.00,73.05739
684.20,73.06126
684.40,73.04036
684.60,73.04372
684.80,73.05938
685.00,73.09162
685.20,73.08454
685.40,73.13100
685.60,73.12595
685.80,73.12115
686.00,73.15230
686.20,73.14056
686.40,73.14842
686.60,73.15214
686.80,73.16820
687.00,73.17761
687.20,73.18822
687.40,73.21443
687.60,73.25811
687.80,73.28249
688.00,73.29995
688.20,73.36845
688.40,73.40145
688.60,73.36742
688.80,73.36688
689.00,73.40102
689.20,73.37755
689.40,73.37269
689.60,73.41284
689.80,73.42946
690.00,73.43394
690.20,73.46532
690.40,73.50039
690.60,73.49935
690.80,73.52108
691.00,73.50895
691.20,73.51181
691.40,73.49257
691.60,73.50256
691.80,73.48432
692.00,73.51353
692.20,73.57951
692.40,73.58311
692.60,73.60240
692.80,73.68657
693.00,73.70580
693.20,73.69251
693.40,73.73455
693.60,73.77508
693.80,73.72740
694.00,73.73201
694.20,73.69310
694.40,73.70391
694.60,73.66853
694.80,73.70954
695.00,73.71246
695.20,73.75050
695.40,73.74009
695.60,73.74974
695.80,73.76266
696.00,73.77036
696.20,73.79539
696.40,73.86530
696.60,73.90464
696.80,73.92415
697.00,73.95908
697.20,73.95992
697.40,73.93474
697.60,73.95937
697.80,73.95992
698.00,73.92854
698.20,73.94488
698.40,73.92191
698.60,73.96343
698.80,73.98832
699.00,74.03131
699.20,74.07118
699.40,74.15687
699.60,74.11232
699.80,74.13091
700.00,74.16478
700.20,74.14221
700.40,74.11896
700.60,74.19032
700.80,74.16478
701.00,74.21038
701.20,74.22846
701.40,74.22093
701.60,74.26063
701.80,74.30160
702.00,74.25216
702.20,74.28962
702.40,74.34932
702.60,74.30876
702.80,74.33375
703.00,74.39275
703.20,74.42031
703.40,74.42272
703.60,74.44569
703.80,74.50544
704.00,74.51029
704.20,74.48280
704.40,74.47596
704.60,74.49659
704.80,74.47572
705.00,74.47278
705.20,74.52557
705.40,74.53949
705.60,74.52520
705.80,74.54309
706.00,74.56949
706.20,74.57422
706.40,74.57564
706.60,74.63902
706.80,74.64017
707.00,74.60386
707.20,74.64896
707.40,74.65989
707.60,74.61770
707.80,74.60398
708.00,74.69682
708.20,74.65994
708.40,74.65840
708.60,74.64900
708.80,74.65037
709.00,74.62612
709.20,74.61595
709.40,74.63381
709.60,74.72308
709.80,74.77378
710.00,74.81052
710.20,74.83113
710.40,74.89111
710.60,74.88936
710.80,74.91319
711.00,74.92888
711.20,74.95065
711.40,74.98355
711.60,74.95709
711.80,74.93897
712.00,74.92239
712.20,74.96313
712.40,74.93430
712.60,74.98521
712.80,75.04575
713.00,75.05725
713.20,75.03902
713.40,75.05434
713.60,75.03948
713.80,75.01580
714.00,75.05708
714.20,75.10498
714.40,75.07018
714.60,75.05864
714.80,75.07662
715.00,75.10283
715.20,75.13078
715.40,75.20084
715.60,75.20171
715.80,75.19624
716.00,75.15479
716.20,75.14017
716.40,75.15897
716.60,75.15913
716.80,75.18828
717.00,75.21896
717.20,75.22801
717.40,75.23189
717.60,75.29256
717.80,75.28049
718.00,75.29823
718.20,75.27267
718.40,75.24834
718.60,75.24597
718.80,75.27387
719.00,75.29305
719.20,75.31773
719.40,75.32314
719.60,75.35800
719.80,75.35466
720.00,75.31763
720.20,75.32339
720.40,75.36397
720.60,75.34297
720.80,75.37458
721.00,75.46180
721.20,75.43088
721.40,75.42033
721.60,75.46352
721.80,75.41845
722.00,75.34828
722.20,75.47625
722.40,75.47536
722.60,75.40306
722.80,75.46526
723.00,75.49702
723.20,75.41929
723.40,75.38239
723.60,75.46223
723.80,75.44836
724.00,75.45847
724.20,75.50887
724.40,75.57067
724.60,75.58925
724.80,75.56019
725.00,75.54417
725.20,75.53858
725.40,75.54202
725.60,75.49651
725.80,75.58108
726.00,75.57341
726.20,75.50173
726.40,75.50195
726.60,75.52500
726.80,75.47077
727.00,75.55265
727.20,75.59204
727.40,75.67318
727.60,75.71199
727.80,75.74174
728.00,75.68028
728.20,75.67427
728.40,75.61027
728.60,75.55074
728.80,75.56330
729.00,75.57960
729.20,75.61748
729.40,75.63251
729.60,75.66826
729.80,75.67874
730.00,75.70217
730.20,75.72426
730.40,75.74708
730.60,75.73935
730.80,75.73283
731.00,75.70549
731.20,75.65566
731.40,75.62569
731.60,75.65135
731.80,75.64646
732.00,75.67473
732.20,75.68730
732.40,75.77541
732.60,75.81300
732.80,75.77546
733.00,75.76675
733.20,75.82770
733.40,75.75914
733.60,75.72875
733.80,75.75503
734.00,75.78413
734.20,75.78251
734.40,75.87712
734.60,75.90231
734.80,75.92918
735.00,75.93074
735.20,75.92030
735.40,75.79631
735.60,75.77534
735.80,75.73344
736.00,75.73174
736.20,75.68164
736.40,75.73006
736.60,75.76264
736.80,75.79089
737.00,75.80364
737.20,75.81654
737.40,75.81036
737.60,75.77283
737.80,75.80629
738.00,75.78725
738.20,75.82232
738.40,75.79879
738.60,75.81170
738.80,75.78480
739.00,75.77693
739.20,75.73776
739.40,75.71772
739.60,75.73118
739.80,75.79150
740.00,75.79383
740.20,75.85065
740.40,75.86452
740.60,75.84515
740.80,75.82503
741.00,75.85529
741.20,75.87448
741.40,75.94307
741.60,75.95839
741.80,75.85387
742.00,75.81000
742.20,75.76624
742.40,75.71465
742.60,75.74891
742.80,75.84300
743.00,75.90664
743.20,75.98754
743.40,76.05681
743.60,76.05650
743.80,76.09060
744.00,76.11017
744.20,76.07454
744.40,76.05046
744.60,76.05597
744.80,76.06105
745.00,75.94999
745.20,75.87792
745.40,75.92781
745.60,75.94844
745.80,75.94942
746.00,76.03517
746.20,76.07160
746.40,75.98896
746.60,75.98981
746.80,75.91999
747.00,75.89643
747.20,75.94980
747.40,75.92058
747.60,75.95007
747.80,75.95174
748.00,75.97853
748.20,75.95320
748.40,76.03087
748.60,75.99589
748.80,76.00849
749.00,75.98785
749.20,75.93547
749.40,75.92567
749.60,75.90915
749.80,75.93815
750.00,76.01548
750.20,76.09721
750.40,76.07382
750.60,76.03258
750.80,76.03291
751.00,75.99461
751.20,75.97432
751.40,76.01461
751.60,76.01711
751.80,76.05022
752.00,76.01805
752.20,76.03353
752.40,75.97227
752.60,75.98875
752.80,75.92517
753.00,75.97849
753.20,75.89795
753.40,75.93512
753.60,75.91602
753.80,75.95144
754.00,75.84126
754.20,75.95246
754.40,75.97801
754.60,76.01549
754.80,75.99863
755.00,76.07639
755.20,75.98895
755.40,75.95605
755.60,75.95643
755.80,76.00539
756.00,75.95585
756.20,76.04277
756.40,76.10295
756.60,76.11874
756.80,76.08498
757.00,76.02190
757.20,75.95960
757.40,75.91293
757.60,75.88546
757.80,75.89474
758.00,76.00377
758.20,76.05011
758.40,76.09615
758.60,76.10852
758.80,76.14580
759.00,76.15293
759.20,76.05196
759.40,76.06423
759.60,76.08661
759.80,76.02516
760.00,76.02144
760.20,76.06136
760.40,76.05093
760.60,76.04051
760.80,76.05159
761.00,75.96751
761.20,75.94855
761.40,75.97014
761.60,75.93116
761.80,75.90127
762.00,75.96779
762.20,76.06021
762.40,75.95190
762.60,75.97877
762.80,75.98182
763.00,75.96242
763.20,75.88117
763.40,75.97476
763.60,75.94493
763.80,75.95025
764.00,76.02289
764.20,76.11204
764.40,76.06853
764.60,76.08997
764.80,76.13989
765.00,76.09646
765.20,76.06154
765.40,76.07357
765.60,76.09688
765.80,76.12562
766.00,76.16319
766.20,76.19868
766.40,76.17106
766.60,76.15354
766.80,76.12923
767.00,76.09804
767.20,76.12265
767.40,76.21236
767.60,76.21706
767.80,76.23911
768.00,76.27870
768.20,76.25982
768.40,76.22795
768.60,76.14923
768.80,76.13943
769.00,76.08899
769.20,76.00059
769.40,76.00033
769.60,76.04146
769.80,76.02763
770.00,76.01986
770.20,76.08331
770.40,76.04463
770.60,76.12544
770.80,76.14335
771.00,76.19464
771.20,76.25100
771.40,76.29068
771.60,76.28258
771.80,76.31952
772.00,76.32394
772.20,76.23891
772.40,76.18881
772.60,76.09646
772.80,76.10578
773.00,76.11981
773.20,76.07996
773.40,76.05397
773.60,76.02799
773.80,75.86267
774.00,75.81903
774.20,75.82338
774.40,75.86931
774.60,76.03869
774.80,76.13850
775.00,76.14372
775.20,76.23456
775.40,76.24052
775.60,76.18709
775.80,76.19923
776.00,76.19526
776.20,76.16460
776.40,76.10711
776.60,76.02007
776.80,75.97691
777.00,75.95830
777.20,75.89888
777.40,75.91624
777.60,75.95923
777.80,75.95199
778.00,75.96608
778.20,75.95235
778.40,75.95772
778.60,75.93746
778.80,75.95610
779.00,76.01607
779.20,76.06328
779.40,76.09043
779.60,76.13419
779.80,76.20096
780.00,76.12746
780.20,76.20360
780.40,76.13708
780.60,76.17447
780.80,76.16446
781.00,76.18840
781.20,76.21349
781.40,76.25499
781.60,76.22547
781.80,76.20247
782.00,76.10791
782.20,76.05734
782.40,76.03481
782.60,75.96684
782.80,75.92961
783.00,76.05052
783.20,76.04875
783.40,76.10964
783.60,76.13280
783.80,76.14082
784.00,76.08386
784.20,76.12055
784.40,76.00343
784.60,76.05589
784.80,76.03520
785.00,76.05829
785.20,75.95229
785.40,76.00207
785.60,75.88820
785.80,75.92452
786.00,75.85887
786.20,75.87851
786.40,75.92137
786.60,76.06919
786.80,76.05487
787.00,76.18226
787.20,76.27293
787.40,76.29160
787.60,76.21147
787.80,76.25149
788.00,76.19139
788.20,76.07027
788.40,76.02754
788.60,76.05484
788.80,76.05376
789.00,76.08629
789.20,76.13885
789.40,76.20465
789.60,76.28114
789.80,76.33318
790.00,76.30125
790.20,76.29384
790.40,76.29297
790.60,76.16105
790.80,76.10807
791.00,76.12498
791.20,76.12697
791.40,76.13985
791.60,76.17256
791.80,76.11178
792.00,76.12504
792.20,76.14812
792.40,76.15956
792.60,76.08542
792.80,76.13828
793.00,76.07786
793.20,76.02586
793.40,75.93920
793.60,76.10351
793.80,76.10983
794.00,76.05431
794.20,76.08294
794.40,76.13204
794.60,76.09438
794.80,76.09155
795.00,76.15998
795.20,76.07472
795.40,76.06657
795.60,76.12438
795.80,76.15013
796.00,76.12525
796.20,76.07349
796.40,76.03635
796.60,75.94372
796.80,75.86498
797.00,75.91510
797.20,76.01712
797.40,76.00303
797.60,76.08264
797.80,76.12917
798.00,76.09451
798.20,76.15858
798.40,76.23932
798.60,76.18893
798.80,76.21486
799.00,76.21412
799.20,76.18299
799.40,76.19203
799.60,76.15624
799.80,76.09811
800.00,76.11539
