"SapphireNormal - RawData"
"Wavelength nm.","T%"
200.00,52.05702
201.00,51.40527
202.00,52.29989
203.00,54.09940
204.00,52.50637
205.00,53.42117
206.00,53.36069
207.00,55.55596
208.00,54.56219
209.00,54.53532
210.00,54.30095
211.00,55.09436
212.00,54.67824
213.00,54.90819
214.00,55.43610
215.00,56.05537
216.00,55.34505
217.00,55.27309
218.00,56.34611
219.00,55.81955
220.00,55.83476
221.00,56.60402
222.00,56.05352
223.00,55.69487
224.00,55.66593
225.00,56.27217
226.00,56.32700
227.00,56.55631
228.00,56.39887
229.00,56.48346
230.00,56.83993
231.00,56.46788
232.00,56.84424
233.00,57.15101
234.00,57.28773
235.00,57.06831
236.00,57.71272
237.00,57.60256
238.00,57.72324
239.00,58.53282
240.00,58.27678
241.00,58.86145
242.00,58.44342
243.00,58.80600
244.00,59.32053
245.00,59.44800
246.00,59.77633
247.00,59.65645
248.00,59.76431
249.00,59.67618
250.00,60.12657
251.00,60.27306
252.00,60.45815
253.00,60.44958
254.00,60.87165
255.00,60.70811
256.00,60.91003
257.00,61.01896
258.00,61.16901
259.00,61.51480
260.00,61.41577
261.00,61.37221
262.00,61.29647
263.00,61.56633
264.00,61.88676
265.00,61.44590
266.00,61.64763
267.00,61.78191
268.00,61.80303
269.00,61.79541
270.00,61.84397
271.00,61.74617
272.00,62.12497
273.00,61.79479
274.00,61.80003
275.00,62.10461
276.00,61.90603
277.00,62.04938
278.00,62.36882
279.00,62.12739
280.00,62.14238
281.00,62.16170
282.00,62.45425
283.00,62.51621
284.00,62.58818
285.00,62.50592
286.00,62.99714
287.00,62.85120
288.00,62.94221
289.00,63.20774
290.00,63.09788
291.00,63.41357
292.00,63.16065
293.00,63.57700
294.00,63.55264
295.00,63.51705
296.00,63.80683
297.00,63.52603
298.00,63.80988
299.00,63.81546
300.00,63.79483
301.00,63.97415
302.00,63.91765
303.00,64.09582
304.00,64.11068
305.00,64.19563
306.00,64.49564
307.00,64.28700
308.00,64.36147
309.00,64.58584
310.00,64.35295
311.00,64.47138
312.00,64.36067
313.00,64.43855
314.00,64.66484
315.00,64.76412
316.00,65.09908
317.00,64.63720
318.00,64.96674
319.00,64.91222
320.00,65.02364
321.00,64.93588
322.00,65.20711
323.00,64.88662
324.00,64.94517
325.00,64.93704
326.00,65.39420
327.00,65.12645
328.00,65.32586
329.00,65.29462
330.00,65.30883
331.00,65.45124
332.00,65.57328
333.00,65.28010
334.00,65.17765
335.00,65.23206
336.00,65.57521
337.00,65.40040
338.00,65.45547
339.00,65.54653
340.00,65.54077
341.00,65.26692
342.00,65.66429
343.00,65.76107
344.00,65.70832
345.00,65.81337
346.00,65.71104
347.00,65.65875
348.00,65.56064
349.00,65.94070
350.00,65.70055
351.00,65.68515
352.00,65.73686
353.00,65.63413
354.00,65.70337
355.00,65.81239
356.00,65.85963
357.00,65.99105
358.00,66.05940
359.00,65.94959
360.00,65.91251
361.00,65.95153
362.00,66.12229
363.00,66.22464
364.00,66.00337
365.00,66.09465
366.00,66.22218
367.00,65.91816
368.00,65.93961
369.00,66.28265
370.00,66.03214
371.00,65.96539
372.00,66.15808
373.00,66.07811
374.00,66.11739
375.00,66.16208
376.00,66.19307
377.00,66.16061
378.00,66.17932
379.00,66.33176
380.00,66.25597
381.00,66.20562
382.00,66.37289
383.00,66.28315
384.00,66.40351
385.00,66.43529
386.00,66.39921
387.00,66.43293
388.00,66.43912
389.00,66.44126
390.00,66.50808
391.00,66.41696
392.00,66.43300
393.00,66.50694
394.00,66.38697
395.00,66.59936
396.00,66.58105
397.00,66.51126
398.00,66.61592
399.00,66.54258
400.00,66.54327
401.00,66.68249
402.00,66.63787
403.00,66.77493
404.00,66.70119
405.00,66.53743
406.00,66.68919
407.00,66.71087
408.00,66.71963
409.00,66.83646
410.00,66.80567
411.00,66.85526
412.00,66.85817
413.00,66.83463
414.00,66.86174
415.00,66.89737
416.00,66.86741
417.00,66.87061
418.00,66.94094
419.00,66.84554
420.00,67.02924
421.00,66.95671
422.00,66.87771
423.00,66.98518
424.00,66.97599
425.00,67.07977
426.00,67.05066
427.00,66.99548
428.00,67.02545
429.00,67.09196
430.00,67.16430
431.00,67.02113
432.00,67.12607
433.00,67.14051
434.00,67.11662
435.00,67.14101
436.00,67.23583
437.00,67.23993
438.00,67.15636
439.00,67.24159
440.00,67.26214
441.00,67.30415
442.00,67.19424
443.00,67.20007
444.00,67.19974
445.00,67.27238
446.00,67.36556
447.00,67.23879
448.00,67.30388
449.00,67.36944
450.00,67.37703
451.00,67.38240
452.00,67.32278
453.00,67.37838
454.00,67.46568
455.00,67.45496
456.00,67.45883
457.00,67.48390
458.00,67.41033
459.00,67.46414
460.00,67.39566
461.00,67.53306
462.00,67.52033
463.00,67.55640
464.00,67.46668
465.00,67.63907
466.00,67.58863
467.00,67.66022
468.00,67.62164
469.00,67.66937
470.00,67.66928
471.00,67.60011
472.00,67.65037
473.00,67.68780
474.00,67.77434
475.00,67.69040
476.00,67.72673
477.00,67.74202
478.00,67.78878
479.00,67.77070
480.00,67.72373
481.00,67.80095
482.00,67.75339
483.00,67.76501
484.00,67.81310
485.00,67.85692
486.00,67.80551
487.00,67.77548
488.00,67.85061
489.00,67.89600
490.00,67.86112
491.00,67.86759
492.00,67.96095
493.00,67.85673
494.00,67.81869
495.00,67.98599
496.00,67.92855
497.00,67.95213
498.00,68.03890
499.00,67.93485
500.00,68.03938
501.00,68.03324
502.00,68.08116
503.00,68.01253
504.00,68.07336
505.00,68.07302
506.00,68.10619
507.00,68.12195
508.00,68.16767
509.00,68.19005
510.00,68.20681
511.00,68.15631
512.00,68.27090
513.00,68.18883
514.00,68.26791
515.00,68.23059
516.00,68.21850
517.00,68.29972
518.00,68.25253
519.00,68.30134
520.00,68.35048
521.00,68.30798
522.00,68.27247
523.00,68.33563
524.00,68.37862
525.00,68.34552
526.00,68.24201
527.00,68.33222
528.00,68.42065
529.00,68.38011
530.00,68.33907
531.00,68.49362
532.00,68.44921
533.00,68.55369
534.00,68.41426
535.00,68.46208
536.00,68.55637
537.00,68.44065
538.00,68.53381
539.00,68.51786
540.00,68.55760
541.00,68.52412
542.00,68.60839
543.00,68.54956
544.00,68.59778
545.00,68.55393
546.00,68.61825
547.00,68.64316
548.00,68.58704
549.00,68.66248
550.00,68.66254
551.00,68.77992
552.00,68.72975
553.00,68.76001
554.00,68.73337
555.00,68.71612
556.00,68.74540
557.00,68.69763
558.00,68.76044
559.00,68.78650
560.00,68.76568
561.00,68.80587
562.00,68.73986
563.00,68.82422
564.00,68.87461
565.00,68.90779
566.00,68.93656
567.00,68.91577
568.00,68.90301
569.00,68.91335
570.00,68.92353
571.00,68.91155
572.00,68.90818
573.00,69.00867
574.00,68.98221
575.00,69.00234
576.00,69.00057
577.00,69.02335
578.00,69.01783
579.00,69.04267
580.00,69.08346
581.00,69.11210
582.00,69.08143
583.00,69.08072
584.00,69.11657
585.00,69.11439
586.00,69.09882
587.00,69.14858
588.00,69.18440
589.00,69.14122
590.00,69.19161
591.00,69.18184
592.00,69.23512
593.00,69.22946
594.00,69.19701
595.00,69.27975
596.00,69.22000
597.00,69.25496
598.00,69.16615
599.00,69.27562
600.00,69.28303
601.00,69.29152
602.00,69.33576
603.00,69.34943
604.00,69.34201
605.00,69.36513
606.00,69.37553
607.00,69.38301
608.00,69.37928
609.00,69.43139
610.00,69.42984
611.00,69.36896
612.00,69.37557
613.00,69.44119
614.00,69.46757
615.00,69.52204
616.00,69.46954
617.00,69.54777
618.00,69.48499
619.00,69.52013
620.00,69.60683
621.00,69.53846
622.00,69.60421
623.00,69.66693
624.00,69.67316
625.00,69.70019
626.00,69.70303
627.00,69.59537
628.00,69.70608
629.00,69.66318
630.00,69.65476
631.00,69.69239
632.00,69.70529
633.00,69.73977
634.00,69.72861
635.00,69.75115
636.00,69.77870
637.00,69.81043
638.00,69.77841
639.00,69.73395
640.00,69.75825
641.00,69.78713
642.00,69.82059
643.00,69.83168
644.00,69.78842
645.00,69.84583
646.00,69.79629
647.00,69.81404
648.00,69.86071
649.00,69.91732
650.00,69.86910
651.00,69.90166
652.00,69.95564
653.00,69.90255
654.00,70.05357
655.00,70.00849
656.00,70.01518
657.00,69.97012
658.00,70.03433
659.00,70.02017
660.00,70.09323
661.00,70.06648
662.00,70.07482
663.00,70.08020
664.00,70.11218
665.00,70.20546
666.00,70.13781
667.00,70.13489
668.00,70.15681
669.00,70.21368
670.00,70.11234
671.00,70.16342
672.00,70.26597
673.00,70.27628
674.00,70.18154
675.00,70.20248
676.00,70.26489
677.00,70.36690
678.00,70.21812
679.00,70.23196
680.00,70.37079
681.00,70.25819
682.00,70.32720
683.00,70.25386
684.00,70.32902
685.00,70.30511
686.00,70.36457
687.00,70.32658
688.00,70.25862
689.00,70.32264
690.00,70.58544
691.00,70.41453
692.00,70.43452
693.00,70.50016
694.00,70.42365
695.00,70.52171
696.00,70.47359
697.00,70.40619
698.00,70.56335
699.00,70.61672
700.00,70.44697
701.00,70.55872
702.00,70.59978
703.00,70.55818
704.00,70.59035
705.00,70.48214
706.00,70.58256
707.00,70.39459
708.00,70.62992
709.00,70.49964
710.00,70.60416
711.00,70.73793
712.00,70.64681
713.00,70.61660
714.00,70.58493
715.00,70.76157
716.00,70.77967
717.00,70.80784
718.00,70.78188
719.00,70.71474
720.00,70.57067
721.00,70.88639
722.00,70.80950
723.00,70.67254
724.00,70.80406
725.00,70.85949
726.00,70.81239
727.00,70.97857
728.00,70.81144
729.00,70.69920
730.00,70.79563
731.00,70.78436
732.00,70.84598
733.00,70.80004
734.00,70.81935
735.00,70.85516
736.00,70.87818
737.00,70.73317
738.00,71.03776
739.00,70.83362
740.00,70.95519
741.00,70.90481
742.00,70.95244
743.00,71.11107
744.00,71.19572
745.00,71.15324
746.00,70.92478
747.00,70.92766
748.00,71.09170
749.00,71.05334
750.00,71.12057
751.00,71.07925
752.00,71.05451
753.00,71.08673
754.00,71.03269
755.00,71.08213
756.00,71.02252
757.00,71.11128
758.00,71.35225
759.00,71.13460
760.00,71.05531
761.00,71.15318
762.00,70.92998
763.00,70.83651
764.00,71.15250
765.00,71.40492
766.00,71.07010
767.00,71.20705
768.00,71.47015
769.00,70.94156
770.00,71.47403
771.00,71.47167
772.00,71.48575
773.00,71.16332
774.00,71.28311
775.00,71.17075
776.00,71.25256
777.00,71.18252
778.00,71.44949
779.00,71.45953
780.00,71.38478
781.00,71.39006
782.00,71.49520
783.00,71.32728
784.00,71.52854
785.00,71.51827
786.00,71.70843
787.00,71.28672
788.00,71.28972
789.00,71.37847
790.00,71.49333
791.00,71.77514
792.00,71.51669
793.00,71.50280
794.00,71.22955
795.00,71.61973
796.00,71.56222
797.00,71.31843
798.00,71.23739
799.00,71.55488
800.00,71.85873
