λ (nm),T,hv,α (cm^-1),k
200.0,0.004174460087735781,6.207668999999998,112328.54899191484,1.7644527215070043
200.06,0.004188673008563886,6.205807257822653,112258.86198653372,1.7638870880104
200.12,0.004202885929391991,6.203946632020787,112189.41104164983,1.7633245079836808
200.18,0.0042170988502200964,6.202087121590568,112120.19456337963,1.762764959704876
200.24,0.004231311771048202,6.200228725529364,112051.21097392814,1.762208421674993
200.3,0.004245524691876307,6.198371442835746,111982.4587113733,1.7616548726150028
200.36,0.004259737612704413,6.196515272509482,111913.93622945344,1.7611042914628725
200.42,0.004273950533532511,6.194660213551542,111845.641997359,1.760556657370652
200.48,0.004288163454360616,6.192806264964086,111777.57449952689,1.7600119497016027
200.54,0.004302376375188721,6.190953425750473,111709.73223543921,1.7594701480273858
200.6,0.0043165892960168265,6.189101694915253,111642.11371942432,1.7589312321252812
200.66,0.004330802216844932,6.187251071464168,111574.71748046184,1.758395181975467
200.72,0.004345015137673037,6.1854015544041445,111507.5420619906,1.7578619777583349
200.78,0.004359228058501143,6.1835531427433015,111440.58602171982,1.7573315998518546
200.84,0.004373440979329248,6.181705835490937,111373.84793144313,1.7568040288289748
200.9,0.004387653900157353,6.17985963165754,111307.32637685594,1.7562792454550757
200.96,0.004401866820985458,6.178014530254776,111241.01995737555,1.7557572306854554
201.02,0.004414660797364065,6.176170530295491,111181.51607084418,1.7553419898853284
201.08,0.004424616884843677,6.174327630793712,111135.33019688576,1.7551365168003827
201.14,0.004434572972323285,6.172485830764642,111089.24813173973,1.7549322483434056
201.2,0.004444529059802896,6.170645129224652,111043.26940980459,1.7547291786244243
201.26,0.0044544851472825085,6.168805525191294,110997.39356860424,1.7545273017940965
201.32,0.004464441234762121,6.166967017683289,110951.62014876008,1.7543266120433365
201.38,0.004474397322241732,6.165129605720527,110905.94869396354,1.7541271036029562
201.44,0.0044843534097213445,6.163293288324066,110860.37875094866,1.7539287707433053
201.5,0.004494309497200956,6.161458064516127,110814.90986946512,1.7537316077739131
201.56,0.004504265584680568,6.159623933320103,110769.5416022516,1.7535356090431395
201.62,0.0045142216721601805,6.157790893760539,110724.27350500932,1.7533407689378262
201.68,0.004524177759639792,6.155958944863149,110679.10513637595,1.7531470818829533
201.74,0.004534133847119404,6.1541280856548015,110634.03605789985,1.7529545423412998
201.8,0.0045440899345990165,6.152298315163527,110589.06583401447,1.7527631448131067
201.86,0.004554046022078628,6.150469632418506,110544.19403201307,1.7525728838357455
201.92,0.004564002109558236,6.148642036450079,110499.42022202382,1.7523837539833884
201.98,0.004573958197037847,6.146815526289731,110454.743976985,1.7521957498666834
202.04,0.004579418917507361,6.144990100970105,110430.2812032878,1.7523280757787871
202.1,0.004582631954471823,6.143165759524987,110415.90116320325,1.7526202133256055
202.16,0.004585844991436286,6.141342500989316,110401.53120191464,1.7529123753709226
202.22,0.004589058028400748,6.139520324399168,110387.17130530364,1.7532045618329928
202.28,0.00459227106536521,6.1376992287917735,110372.82145928162,1.753496772630275
202.34,0.004595484102329673,6.135879213205495,110358.48164978944,1.7537890076814324
202.4,0.004598697139294135,6.1340602766798416,110344.15186279746,1.7540812669053305
202.46,0.004601910176258598,6.132242418255457,110329.83208430545,1.75437355022104
202.52,0.00460512321322306,6.130425636974126,110315.5223003425,1.7546658575478327
202.58,0.004608336250187522,6.128609931878763,110301.2224969669,1.754958188805182
202.64,0.004611549287151983,6.126795302013423,110286.93266026616,1.7552505439127633
202.7,0.004614762324116445,6.124981746423286,110272.65277635676,1.7555429227904513
202.76,0.004617975361080908,6.123169264154665,110258.38283138425,1.7558353253583225
202.82,0.00462118839804537,6.121357854255003,110244.12281152305,1.756127751536651
202.88,0.004624401435009832,6.1195475157728705,110229.87270297643,1.7564202012459103
202.94,0.004627614471974295,6.117738247757957,110215.63249197639,1.756712674406772
203.0,0.004630827508938757,6.115930049261083,110201.40216478358,1.7570051709401053
203.06,0.004627289892090187,6.114122919334186,110217.07058414574,1.7577743673891213
203.12,0.004623752275241616,6.112316857030327,110232.75098677825,1.7585439026787122
203.18,0.004620214658393046,6.110511861403681,110248.44339102486,1.7593137772710121
203.24,0.004616677041544476,6.108707931509544,110264.14781527148,1.7600839916291744
203.3,0.004613139424695906,6.106905066404328,110279.86427794627,1.7608545462173715
203.36,0.004609601807847335,6.105103265145554,110295.5927975198,1.761625441500803
203.42,0.004606064190998766,6.103302526791859,110311.33339250518,1.7623966779456954
203.48,0.004602526574150196,6.101502850402988,110327.08608145826,1.7631682560193063
203.54,0.004598988957301626,6.099704235039795,110342.8508829776,1.7639401761899274
203.6,0.004595451340453055,6.097906679764244,110358.62781570475,1.7647124389268871
203.66,0.004591913723604485,6.096110183639398,110374.41689832431,1.7654850447005548
203.72,0.004588376106755915,6.094314745729433,110390.2181495641,1.7662579939823426
203.78,0.004584838489907345,6.092520365099617,110406.03158819524,1.7670312872447096
203.84,0.004581300873058774,6.0907270408163265,110421.85723303235,1.7678049249611647
203.9,0.0045777632562102035,6.088934771947032,110437.69510293363,1.7685789076062686
203.96,0.004574225639361633,6.087143557560306,110453.54521680105,1.76935323565564
204.02,0.004569099040266862,6.085353396725811,110476.53645261741,1.7702421402369548
204.08,0.0045607944766796905,6.083564288514307,110513.83468736606,1.771360579889065
204.14,0.004552489913092523,6.081776231997648,110551.20089886605,1.772480460948038
204.2,0.004544185349505352,6.079989226248776,110588.63533534778,1.773601788355951
204.26,0.004535880785918181,6.078203270341722,110626.13824640375,1.7747245670814098
204.32,0.00452757622233101,6.076418363351604,110663.7098829986,1.7758488021197443
204.38,0.004519271658743838,6.074634504354633,110701.35049747935,1.7769744984932054
204.44,0.0045109670951566675,6.072851692428094,110739.06034358531,1.7781016612511558
204.5,0.004502662531569496,6.071069926650367,110776.83967645852,1.7792302954702708
204.56,0.0044943579679823245,6.0692892061008985,110814.68875265396,1.780360406254736
204.62,0.004486053404395154,6.067509529860227,110852.60783015029,1.781491998736452
204.68,0.004477748840807982,6.065730897009965,110890.59716836001,1.782625078075232
204.74,0.004469444277220811,6.063953306632802,110928.65702814035,1.7837596494590118
204.8,0.00446113971363364,6.062176757812498,110966.78767180406,1.7848957181040541
204.86,0.004452835150046469,6.0604012496338955,111004.98936313008,1.7860332892551583
204.92,0.004444530586459302,6.058626781182899,111043.26236737458,1.78717236818587
204.98,0.00443622602287213,6.056853351546493,111081.6069512821,1.7883129601986971
205.04,0.004426690329233595,6.055080959812718,111125.72465121874,1.7895468827293828
205.1,0.004416539070569377,6.053309605070696,111172.79487354637,1.7908287818147481
205.16,0.00440638781190516,6.0515392864106055,111219.97340968635,1.7921128698117395
205.22,0.004396236553240942,6.049770002923691,111267.26075927287,1.7933991563046816
205.28,0.0043860852945767255,6.048001753702259,111314.65742540518,1.7946876509431835
205.34,0.004375934035912508,6.0462345378396805,111362.16391467977,1.795978363442738
205.4,0.00436578277724829,6.0444683544303786,111409.7807372228,1.7972713035853285
205.46,0.004355631518584073,6.042703202569843,111457.50840672302,1.798566481220043
205.52,0.004345480259919855,6.040939081354611,111505.34744046495,1.7998639062636927
205.58,0.004335329001255638,6.039175989882284,111553.2983593626,1.8011635887014423
205.64,0.004325177742591425,6.0374139272515075,111601.3616879934,1.802465538587443
205.7,0.004315026483927208,6.035652892561983,111649.53795463286,1.80376976604548
205.76,0.00430487522526299,6.033892884914463,111697.82769128907,1.805076281269614
205.82,0.004294723966598773,6.032133903410747,111746.23143373824,1.806385094524847
205.88,0.004284572707934555,6.030375947153681,111794.74972156023,1.8076962161477852
205.94,0.0042744214492703375,6.028619015247158,111843.38309817464,1.8090096565473086
206.0,0.00426427019060612,6.026863106796116,111892.13211087737,1.8103254262052595
206.06,0.0042550975323373905,6.025108220906532,111936.28153808057,1.8115672160131175
206.12,0.00424592487406866,6.0233543566854255,111980.5262403938,1.812810964292738
206.18,0.004236752215799931,6.0216015132408565,112024.86662991665,1.814056679064309
206.24,0.0042275795575312,6.019849689681923,112069.30312142831,1.8153043683991905
206.3,0.004218406899262471,6.018098885118759,112113.83613241072,1.8165540404203553
206.36,0.004209234240993741,6.01634909866253,112158.46608307224,1.8178057033028312
206.42,0.0042000615827250155,6.014600329425443,112203.19339637116,1.8190593652741502
206.48,0.004190888924456285,6.012852576520728,112248.01849804018,1.8203150346148107
206.54,0.004181716266187556,6.011105839062651,112292.94181661033,1.8215727196587268
206.6,0.004172543607918826,6.009360116166505,112337.96378343574,1.8228324287937008
206.66,0.004163370949650096,6.007615406948611,112383.08483271851,1.8240941704618898
206.72,0.0041541982913813665,6.005871710526315,112428.30540153373,1.825357953160281
206.78,0.004145025633112636,6.004129026017989,112473.62592985496,1.8266237854411747
206.84,0.004135852974843907,6.002387352543027,112519.04686057988,1.8278916759126644
206.9,0.004126680316575176,6.000646689221846,112564.56863955632,1.829161633239133
206.96,0.004117507658306447,5.998907035175879,112610.19171560841,1.8304336661417462
207.02,0.004109311549190347,5.997168389527581,112651.04368310486,1.831628554085414
207.08,0.004103068538379506,5.995430751400424,112682.21550492452,1.832666388916891
207.14,0.0040968255275686686,5.993694119918895,112713.43479225878,1.833705289739867
207.2,0.004090582516757827,5.991958494208494,112744.70168988015,1.8347452595813192
207.26,0.004084339505946987,5.990223873395735,112776.01634322449,1.8357863014817495
207.32,0.004078096495136145,5.9884902566081415,112807.37889839508,1.8368284184952703
207.38,0.004071853484325305,5.986757642974249,112838.78950216674,1.8378716136896853
207.44,0.004065610473514464,5.985026031623602,112870.24830198982,1.8389158901465714
207.5,0.004059367462703623,5.983295421686746,112901.75544599455,1.8399612509613634
207.56,0.004053124451892782,5.981565812295239,112933.3110829951,1.8410076992434397
207.62,0.0040468814410819405,5.979837202581638,112964.91536249383,1.8420552381162036
207.68,0.0040406384302711,5.978109591679506,112996.56843468551,1.8431038707171723
207.74,0.004034395419460259,5.976382978723403,113028.27045046163,1.8441536001980607
207.8,0.004028152408649418,5.974657362848892,113060.02156141473,1.845204429724869
207.86,0.004021909397838577,5.9729327431925325,113091.82191984271,1.846256362477972
207.92,0.004015666387027739,5.971209118891881,113123.67167875326,1.8473094016522036
207.98,0.004009423376216899,5.9694864890854875,113155.57099186827,1.84836355045695
208.04,0.004005582436560716,5.9677648529129,113175.22136183744,1.8492178592374835
208.1,0.004002942532481864,5.9660442095146555,113188.73812438702,1.8499721047059021
208.16,0.004000302628403013,5.964324558032282,113202.26380405921,1.85072662335149
208.22,0.0039976627243241605,5.962605897608298,113215.79841262718,1.8514814154928438
208.28,0.003995022820245308,5.96088822738621,113229.3419618874,1.8522364814491623
208.34,0.003992382916166456,5.959171546510511,113242.89446365983,1.852991821540251
208.4,0.003989743012087605,5.957455854126679,113256.45592978776,1.853747436086521
208.46,0.003987103108008753,5.955741149381176,113270.02637213809,1.8545033254089922
208.52,0.0039844632039299005,5.954027431421445,113283.60580260126,1.8552594898292947
208.58,0.003981823299851049,5.952314699395913,113297.19423309132,1.8560159296696686
208.64,0.003979183395772198,5.950602952453988,113310.7916755461,1.8567726452529687
208.7,0.0039765434916933465,5.948892189746046,113324.39814192716,1.8575296369026635
208.76,0.003973903587614494,5.947182410423452,113338.01364421989,1.8582869049428385
208.82,0.003971263683535642,5.94547361363854,113351.63819443354,1.8590444496981953
208.88,0.00396862377945679,5.943765798544618,113365.27180460139,1.8598022714940563
208.94,0.003965983875377939,5.942058964295969,113378.91448678069,1.8605603706563647
209.0,0.0039633439712990865,5.940353110047846,113392.56625305279,1.8613187475116868
209.06,0.003963838684363949,5.938648234956471,113390.0072454809,1.8618110796795122
209.12,0.003964333397428811,5.936944338179035,113387.44855727002,1.8623033929745232
209.18,0.003964828110493673,5.935241418873696,113384.89018834042,1.862795687399925
209.24,0.003965322823558535,5.933539476199579,113382.33213861246,1.8632879629589225
209.3,0.003965817536623398,5.931838509316768,113379.77440800649,1.8637802196547189
209.36,0.003966312249688259,5.930138517386319,113377.21699644288,1.8642724574905165
209.42,0.003966806962753122,5.928439499570241,113374.65990384205,1.8647646764695165
209.48,0.0039673016758179835,5.9267414550315065,113372.10313012448,1.86525687659492
209.54,0.003967796388882846,5.925044382934045,113369.54667521061,1.8657490578699256
209.6,0.003968291101947708,5.923348282442748,113366.99053902096,1.866241220297732
209.66,0.00396878581501257,5.921653152723456,113364.43472147608,1.8667333638815373
209.72,0.003969280528077432,5.919958992942971,113361.87922249649,1.8672254886245363
209.78,0.0039697752411422945,5.918265802269043,113359.32404200286,1.867717594529926
209.84,0.003970269954207156,5.916573579870376,113356.76917991575,1.8682096816008993
209.9,0.003970764667272019,5.914882324916626,113354.21463615586,1.8687017498406504
209.96,0.0039712593803368805,5.913192036578395,113351.66041064382,1.8691937992523708
210.02,0.003972452655114416,5.911502714027234,113345.50078912305,1.8696263538282651
210.08,0.003975043053317297,5.909814356435644,113332.13565568322,1.8699399619651484
210.14,0.003977633451520177,5.908126962977062,113318.77922900267,1.8702535878380802
210.2,0.003980223849723057,5.90644053282588,113305.43149774474,1.8705672313829917
210.26,0.003982814247925939,5.904755065157423,113292.09245059485,1.8708808925359652
210.32,0.003985404646128819,5.903070559147965,113278.76207626043,1.8711945712332327
210.38,0.0039879950443317,5.901387013974713,113265.44036347103,1.8715082674111794
210.44,0.0039905854425345815,5.899704428815814,113252.1273009781,1.8718219810063403
210.5,0.003993175840737462,5.898022802850356,113238.82287755501,1.8721357119553999
210.56,0.003995766238940343,5.896342135258357,113225.52708199692,1.8724494601951915
210.62,0.003998356637143224,5.894662425220775,113212.2399031208,1.8727632256626998
210.68,0.004000947035346105,5.892983671919497,113198.96132976543,1.8730770082950563
210.74,0.0040035374335489855,5.891305874537344,113185.6913507911,1.873390808029541
210.8,0.004006127831751867,5.889629032258063,113172.42995507989,1.873704624803584
210.86,0.004008718229954748,5.887953144266336,113159.1771315353,1.8740184585547597
210.92,0.004011308628157627,5.886278209747771,113145.93286908242,1.8743323092207909
210.98,0.004013899026360508,5.884604227888898,113132.69715666774,1.8746461767395481
211.04,0.004017210987217034,5.88293119787718,113115.78703623665,1.8748990160443701
211.1,0.004020883729400384,5.881259118900994,113097.0511427094,1.8751214251040227
211.16,0.004024556471583733,5.879587990149649,113078.33235504942,1.8753439412737407
211.22,0.0040282292137670825,5.877917810813369,113059.63064204986,1.8755665642776567
211.28,0.004031901955950432,5.876248580083301,113040.94597258925,1.8757892938407317
211.34,0.004035574698133782,5.8745802971515095,113022.27831563112,1.8760121296887509
211.4,0.004039247440317131,5.872912961210973,113003.62764022363,1.8762350715483191
211.46,0.00404292018250048,5.871246571455594,112984.99391549942,1.8764581191468626
211.52,0.004046592924683829,5.86958112708018,112966.37711067517,1.876681272212619
211.58,0.004050265666867179,5.86791662728046,112947.77719505133,1.8769045304746408
211.64,0.004053938409050527,5.8662530712530705,112929.19413801188,1.877127893662788
211.7,0.004057611151233876,5.8645904581955595,112910.62790902391,1.8773513615077269
211.76,0.004061283893417225,5.862928787306384,112892.0784776374,1.8775749337409258
211.82,0.0040649566356005746,5.861268057784912,112873.54581348493,1.8777986100946535
211.88,0.004068629377783925,5.859608268831414,112855.02988628135,1.8780223903019753
211.94,0.004072302119967274,5.85794941964707,112836.53066582348,1.878246274096751
212.0,0.004075974862150623,5.856291509433961,112818.04812198979,1.8784702612136293
212.06,0.004080104685413724,5.854634537395077,112797.28526530237,1.8786560951761362
212.12,0.0040842345086768254,5.852978502734301,112776.54341385276,1.8788420833977726
212.18,0.004088364331939927,5.851323404656424,112755.822525183,1.8790282254679498
212.24,0.004092494155203028,5.84966924236713,112735.12255696379,1.8792145209774218
212.3,0.004096623978466129,5.848016015073009,112714.4434669938,1.8794009695182805
212.36,0.004100753801729229,5.84636372198154,112693.78521319942,1.8795875706839498
212.42,0.004104883624992329,5.8447123623011015,112673.14775363392,1.8797743240691804
212.48,0.00410901344825543,5.843061935240963,112652.53104647722,1.879961229270044
212.54,0.004113143271518531,5.8414124400112915,112631.93505003527,1.8801482858839285
212.6,0.0041172730947816325,5.839763875823142,112611.35972273951,1.8803354935095302
212.66,0.004121402918044734,5.83811624188846,112590.80502314639,1.8805228517468515
212.72,0.004125532741307835,5.836469537420081,112570.27090993694,1.8807103601971935
212.78,0.004129662564570935,5.834823761631732,112549.75734191618,1.8808980184631512
212.84,0.0041337923878340364,5.833178913738019,112529.26427801263,1.8810858261486076
212.9,0.004137922211097138,5.831534992954438,112508.79167727788,1.8812737828587294
212.96,0.004142052034360239,5.829891998497369,112488.3394988861,1.8814618881999616
213.02,0.004146296058625423,5.828249929584076,112467.34299581517,1.8816406939317796
213.08,0.004150768484894773,5.8266087854327,112445.23976193955,1.8818007803439525
213.14,0.00415524091116412,5.824968565262269,112423.16033133652,1.8819610569042764
213.2,0.004159713337433469,5.8233292682926825,112401.10465279315,1.8821215230917179
213.26,0.004164185763702819,5.821690893744724,112379.07267526146,1.8822821783870407
213.32,0.004168658189972169,5.820053440840052,112357.06434785799,1.8824430222728021
213.38,0.004173130616241518,5.8184169088012,112335.07961986298,1.8826040542333453
213.44,0.0041776030425108674,5.816781296851573,112313.11844071954,1.882765273754786
213.5,0.004182075468780216,5.815146604215455,112291.18076003317,1.8829266803250109
213.56,0.004186547895049566,5.813512830117999,112269.2665275709,1.883088273433666
213.62,0.004191020321318916,5.811879973785225,112247.3756932607,1.8832500525721498
213.68,0.004195492747588265,5.810248034444028,112225.50820719075,1.8834120172336068
213.74,0.004199965173857615,5.808617011322165,112203.66401960878,1.883574166912919
213.8,0.004204437600126965,5.806986903648269,112181.84308092135,1.8837365011066967
213.86,0.004208910026396314,5.805357710651827,112160.04534169317,1.883899019313272
213.92,0.004213382452665661,5.803729431563201,112138.27075264651,1.8840617210326935
213.98,0.004217854878935011,5.802102065613608,112116.5192646605,1.8842246057667162
214.04,0.004222732175783642,5.800475612035132,112092.82497793055,1.8843546257642139
214.1,0.0042278119079219145,5.798850070060719,112068.17632167367,1.8844683743671429
214.16,0.004232891640060186,5.797225438924168,112043.55726309761,1.8845823884975281
214.22,0.004237971372198459,5.795601717860143,112018.96773120681,1.884696667379311
214.28,0.0042430511043367305,5.7939789061041616,111994.4076552609,1.8848112102393888
