λ (nm),T,hv,α (cm^-1),k
200.0,0.004174460087735781,6.207668999999998,111919.6835383469,1.7580302779808257
200.06,0.004188673008563886,6.205807257822653,111850.25018717321,1.757466703337454
200.12,0.004202885929391991,6.203946632020787,111781.05203725849,1.7569061710496205
200.18,0.0042170988502200964,6.202087121590568,111712.08750052084,1.7563486594744218
200.24,0.004231311771048202,6.200228725529364,111643.3550049083,1.7557941471911191
200.3,0.004245524691876307,6.198371442835746,111574.85299418405,1.755242612998138
200.36,0.004259737612704413,6.196515272509482,111506.57992771469,1.7546940359101084
200.42,0.004273950533532511,6.194660213551542,111438.53428026263,1.7541483951549646
200.48,0.004288163454360616,6.192806264964086,111370.71454178133,1.7536056701710847
200.54,0.004302376375188721,6.190953425750473,111303.11921721458,1.753065840604486
200.6,0.0043165892960168265,6.189101694915253,111235.7468262985,1.7525288863060586
200.66,0.004330802216844932,6.187251071464168,111168.59590336708,1.7519947873288504
200.72,0.004345015137673037,6.1854015544041445,111101.66499716089,1.7514635239253946
200.78,0.004359228058501143,6.1835531427433015,111034.95267063892,1.7509350765450828
200.84,0.004373440979329248,6.181705835490937,110968.45750079339,1.7504094258315768
200.9,0.004387653900157353,6.17985963165754,110902.1780784676,1.7498865526202687
200.96,0.004401866820985458,6.178014530254776,110836.11300817686,1.7493664379357774
201.02,0.004414660797364065,6.176170530295491,110776.82571024897,1.7489527085734782
201.08,0.004424616884843677,6.174327630793712,110730.80794856897,1.7487479833914195
201.14,0.004434572972323285,6.172485830764642,110684.89361784699,1.7485444584525953
201.2,0.004444529059802896,6.170645129224652,110639.08225417622,1.7483421278884732
201.26,0.0044544851472825085,6.168805525191294,110593.37339676394,1.7481409858710002
201.32,0.004464441234762121,6.166967017683289,110547.76658790366,1.747941026612236
201.38,0.004474397322241732,6.165129605720527,110502.26137294775,1.7477422443639927
201.44,0.0044843534097213445,6.163293288324066,110456.85730028004,1.7475446334174738
201.5,0.004494309497200956,6.161458064516127,110411.55392128913,1.7473481881029223
201.56,0.004504265584680568,6.159623933320103,110366.35079034165,1.7471529027892687
201.62,0.0045142216721601805,6.157790893760539,110321.24746475606,1.746958771883787
201.68,0.004524177759639792,6.155958944863149,110276.24350477655,1.7467657898317495
201.74,0.004534133847119404,6.1541280856548015,110231.33847354738,1.7465739511160903
201.8,0.0045440899345990165,6.152298315163527,110186.53193708742,1.7463832502570689
201.86,0.004554046022078628,6.150469632418506,110141.82346426495,1.7461936818119403
201.92,0.004564002109558236,6.148642036450079,110097.21262677283,1.7460052403746258
201.98,0.004573958197037847,6.146815526289731,110052.69899910383,1.7458179205753908
202.04,0.004579418917507361,6.144990100970105,110028.32526762388,1.745949764833502
202.1,0.004582631954471823,6.143165759524987,110013.99756954557,1.746240839026866
202.16,0.004585844991436286,6.141342500989316,109999.6799135773,1.746531937629557
202.22,0.004589058028400748,6.139520324399168,109985.37228565218,1.7468230605601258
202.28,0.00459227106536521,6.1376992287917735,109971.07467173281,1.7471142077373292
202.34,0.004595484102329673,6.135879213205495,109956.78705781125,1.747405379080125
202.4,0.004598697139294135,6.1340602766798416,109942.50942990893,1.7476965745076758
202.46,0.004601910176258598,6.132242418255457,109928.24177407658,1.7479877939393464
202.52,0.00460512321322306,6.130425636974126,109913.98407639413,1.748279037294701
202.58,0.004608336250187522,6.128609931878763,109899.73632297062,1.7485703044935081
202.64,0.004611549287151983,6.126795302013423,109885.4984999442,1.748861595455734
202.7,0.004614762324116445,6.124981746423286,109871.27059348187,1.749152910101546
202.76,0.004617975361080908,6.123169264154665,109857.05258977966,1.7494442483513108
202.82,0.00462118839804537,6.121357854255003,109842.84447506226,1.7497356101255934
202.88,0.004624401435009832,6.1195475157728705,109828.64623558316,1.750026995345156
202.94,0.004627614471974295,6.117738247757957,109814.45785762451,1.7503184039309598
203.0,0.004630827508938757,6.115930049261083,109800.27932749697,1.7506098358041615
203.06,0.004627289892090187,6.114122919334186,109815.89071527234,1.7513762324497626
203.12,0.004623752275241616,6.112316857030327,109831.5140427001,1.7521429667025912
203.18,0.004620214658393046,6.110511861403681,109847.14932805719,1.7529100390230983
203.24,0.004616677041544476,6.108707931509544,109862.79658966261,1.7536774498727512
203.3,0.004613139424695906,6.106905066404328,109878.45584587744,1.754445199714034
203.36,0.004609601807847335,6.105103265145554,109894.12711510502,1.7552132890104521
203.42,0.004606064190998766,6.103302526791859,109909.81041579109,1.755981718226535
203.48,0.004602526574150196,6.101502850402988,109925.50576642391,1.7567504878278397
203.54,0.004598988957301626,6.099704235039795,109941.21318553442,1.7575195982809537
203.6,0.004595451340453055,6.097906679764244,109956.93269169625,1.7582890500534962
203.66,0.004591913723604485,6.096110183639398,109972.66430352603,1.7590588436141257
203.72,0.004588376106755915,6.094314745729433,109988.40803968337,1.759828979432537
203.78,0.004584838489907345,6.092520365099617,110004.16391887113,1.7605994579794708
203.84,0.004581300873058774,6.0907270408163265,110019.93195983536,1.7613702797267112
203.9,0.0045777632562102035,6.088934771947032,110035.7121813657,1.762141445147093
203.96,0.004574225639361633,6.087143557560306,110051.50460229526,1.7629129547145028
204.02,0.004569099040266862,6.085353396725811,110074.41215215516,1.7637986237659535
204.08,0.0045607944766796905,6.083564288514307,110111.57462480413,1.7649129924019267
204.14,0.004552489913092523,6.081776231997648,110148.80482677536,1.7660287971981756
204.2,0.004544185349505352,6.079989226248776,110186.10300539575,1.7671460430787886
204.26,0.004535880785918181,6.078203270341722,110223.46940934932,1.768264734994287
204.32,0.00452757622233101,6.076418363351604,110260.90428868723,1.7693848779218186
204.38,0.004519271658743838,6.074634504354633,110298.40789483795,1.770506476865352
204.44,0.0045109670951566675,6.072851692428094,110335.98048061722,1.7716295368558723
204.5,0.004502662531569496,6.071069926650367,110373.62230023835,1.7727540629515757
204.56,0.0044943579679823245,6.0692892061008985,110411.33360932258,1.7738800602380698
204.62,0.004486053404395154,6.067509529860227,110449.11466490943,1.7750075338285733
204.68,0.004477748840807982,6.065730897009965,110486.96572546722,1.7761364888641205
204.74,0.004469444277220811,6.063953306632802,110524.88705090371,1.7772669305137623
204.8,0.00446113971363364,6.062176757812498,110562.87890257682,1.7783988639747754
204.86,0.004452835150046469,6.0604012496338955,110600.94154330535,1.7795322944728675
204.92,0.004444530586459302,6.058626781182899,110639.07523738,1.7806672272623907
204.98,0.00443622602287213,6.056853351546493,110677.28025057435,1.7818036676265507
205.04,0.004426690329233595,6.055080959812718,110721.23736619332,1.7830330987941798
205.1,0.004416539070569377,6.053309605070696,110768.13625729684,1.784310331886299
205.16,0.00440638781190516,6.0515392864106055,110815.14306796051,1.785589745922609
205.22,0.004396236553240942,6.049770002923691,110862.25829599993,1.7868713504525502
205.28,0.0043860852945767255,6.048001753702259,110909.48244268309,1.7881551550906065
205.34,0.004375934035912508,6.0462345378396805,110956.81601276253,1.7894411695169083
205.4,0.00436578277724829,6.0444683544303786,111004.25951450758,1.790729403477833
205.46,0.004355631518584073,6.042703202569843,111051.81345973723,1.7920198667866185
205.52,0.004345480259919855,6.040939081354611,111099.47836385312,1.7933125693239804
205.58,0.004335329001255638,6.039175989882284,111147.25474587319,1.7946075210387376
205.64,0.004325177742591425,6.0374139272515075,111195.14312846545,1.7959047319484458
205.7,0.004315026483927208,6.035652892561983,111243.14403798255,1.7972042121400398
205.76,0.00430487522526299,6.033892884914463,111291.2580044961,1.7985059717704754
205.82,0.004294723966598773,6.032133903410747,111339.48556183217,1.7998100210673922
205.88,0.004284572707934555,6.030375947153681,111387.82724760655,1.8011163703297686
205.94,0.0042744214492703375,6.028619015247158,111436.28360326085,1.8024250299286009
206.0,0.00426427019060612,6.026863106796116,111484.8551740989,1.8037360103075766
206.06,0.0042550975323373905,6.025108220906532,111528.84390150015,1.8049732801162224
206.12,0.00424592487406866,6.0233543566854255,111572.92755721886,1.8062125012679744
206.18,0.004236752215799931,6.0216015132408565,111617.1065518547,1.8074536817538303
206.24,0.0042275795575312,6.019849689681923,111661.38129867708,1.808696829615771
206.3,0.004218406899262471,6.018098885118759,111705.7522136483,1.8099419529472005
206.36,0.004209234240993741,6.01634909866253,111750.21971544722,1.8111890598933913
206.42,0.0042000615827250155,6.014600329425443,111794.78422549262,1.812438158651929
206.48,0.004190888924456285,6.012852576520728,111839.44616796757,1.81368925747317
206.54,0.004181716266187556,6.011105839062651,111884.20596984326,1.8149423646606948
206.6,0.004172543607918826,6.009360116166505,111929.0640609038,1.8161974885717747
206.66,0.004163370949650096,6.007615406948611,111974.02087377073,1.8174546376178375
206.72,0.0041541982913813665,6.005871710526315,112019.07684392831,1.818713820264944
206.78,0.004145025633112636,6.004129026017989,112064.2324097486,1.8199750450342624
206.84,0.004135852974843907,6.002387352543027,112109.48801251719,1.821238320502555
206.9,0.004126680316575176,6.000646689221846,112154.84409645906,1.8225036553026672
206.96,0.004117507658306447,5.998907035175879,112200.30110876466,1.8237710581240203
207.02,0.004109311549190347,5.997168389527581,112241.00437890529,1.8249615967868917
207.08,0.004103068538379506,5.995430751400424,112272.06273819755,1.825995653996269
207.14,0.0040968255275686686,5.993694119918895,112303.16839023436,1.8270307733170352
207.2,0.004090582516757827,5.991958494208494,112334.32147926127,1.8280669577651496
207.26,0.004084339505946987,5.990223873395735,112365.52215018478,1.8291042103700481
207.32,0.004078096495136145,5.9884902566081415,112396.77054857637,1.8301425341747262
207.38,0.004071853484325305,5.986757642974249,112428.06682067655,1.8311819322358194
207.44,0.004065610473514464,5.985026031623602,112459.41111339907,1.8322224076236897
207.5,0.004059367462703623,5.983295421686746,112490.80357433489,1.833263963422504
207.56,0.004053124451892782,5.981565812295239,112522.24435175656,1.834306602730323
207.62,0.0040468814410819405,5.979837202581638,112553.73359462223,1.835350328659181
207.68,0.0040406384302711,5.978109591679506,112585.27145258,1.8363951443351745
207.74,0.004034395419460259,5.976382978723403,112616.8580759721,1.8374410528985474
207.8,0.004028152408649418,5.974657362848892,112648.49361583935,1.8384880575037765
207.86,0.004021909397838577,5.9729327431925325,112680.17822392524,1.8395361613196581
207.92,0.004015666387027739,5.971209118891881,112711.91205268053,1.8405853675293986
207.98,0.004009423376216899,5.9694864890854875,112743.69525526762,1.8416356793307025
208.04,0.004005582436560716,5.9677648529129,112763.27409972076,1.8424868785068638
208.1,0.004002942532481864,5.9660442095146555,112776.7416625139,1.8432383785920445
208.16,0.004000302628403013,5.964324558032282,112790.21810997218,1.8439901508600551
208.22,0.0039976627243241605,5.962605897608298,112803.70345382587,1.8447421956283323
208.28,0.003995022820245308,5.96088822738621,112817.19770582854,1.845494513214913
208.34,0.003992382916166456,5.959171546510511,112830.70087775709,1.8462471039384392
208.4,0.003989743012087605,5.957455854126679,112844.21298141172,1.8469999681181555
208.46,0.003987103108008753,5.955741149381176,112857.73402861616,1.8477531060739136
208.52,0.0039844632039299005,5.954027431421445,112871.26403121752,1.8485065181261717
208.58,0.003981823299851049,5.952314699395913,112884.80300108653,1.8492602045959983
208.64,0.003979183395772198,5.950602952453988,112898.35095011753,1.8500141658050724
208.7,0.0039765434916933465,5.948892189746046,112911.90789022857,1.8507684020756852
208.76,0.003973903587614494,5.947182410423452,112925.47383336141,1.8515229137307425
208.82,0.003971263683535642,5.94547361363854,112939.04879148157,1.8522777010937643
208.88,0.00396862377945679,5.943765798544618,112952.63277657855,1.8530327644888889
208.94,0.003965983875377939,5.942058964295969,112966.2258006657,1.8537881042408728
209.0,0.0039633439712990865,5.940353110047846,112979.8278757804,1.854543720675093
209.06,0.003963838684363949,5.938648234956471,112977.27818275767,1.8550342607996944
209.12,0.003964333397428811,5.936944338179035,112974.72880793351,1.8555247821201768
209.18,0.003964828110493673,5.935241418873696,112972.17975122847,1.8560152846397329
209.24,0.003965322823558535,5.933539476199579,112969.63101256322,1.8565057683615573
209.3,0.003965817536623398,5.931838509316768,112967.08259185833,1.8569962332888401
209.36,0.003966312249688259,5.930138517386319,112964.53448903456,1.8574866794247735
209.42,0.003966806962753122,5.928439499570241,112961.9867040126,1.8579771067725466
209.48,0.0039673016758179835,5.9267414550315065,112959.43923671315,1.8584675153353476
209.54,0.003967796388882846,5.925044382934045,112956.89208705701,1.8589579051163652
209.6,0.003968291101947708,5.923348282442748,112954.34525496495,1.8594482761187852
209.66,0.00396878581501257,5.921653152723456,112951.79874035782,1.8599386283457942
209.72,0.003969280528077432,5.919958992942971,112949.25254315646,1.860428961800576
209.78,0.0039697752411422945,5.918265802269043,112946.70666328176,1.8609192764863156
209.84,0.003970269954207156,5.916573579870376,112944.16110065466,1.8614095724061948
209.9,0.003970764667272019,5.914882324916626,112941.61585519604,1.861899849563395
209.96,0.0039712593803368805,5.913192036578395,112939.07092682691,1.862390107961097
210.02,0.003972452655114416,5.911502714027234,112932.93372575464,1.862821088078633
210.08,0.003975043053317297,5.909814356435644,112919.61724015539,1.8631335547111143
210.14,0.003977633451520177,5.908126962977062,112906.30942962367,1.8634460390150867
210.2,0.003980223849723057,5.90644053282588,112893.01028286401,1.8637585409267146
210.26,0.003982814247925939,5.904755065157423,112879.71978860305,1.8640710603823125
210.32,0.003985404646128819,5.903070559147965,112866.43793558933,1.8643835973183454
210.38,0.0039879950443317,5.901387013974713,112853.16471259341,1.8646961516714289
210.44,0.0039905854425345815,5.899704428815814,112839.90010840766,1.865008723378329
210.5,0.003993175840737462,5.898022802850356,112826.64411184636,1.8653213123759615
210.56,0.003995766238940343,5.896342135258357,112813.39671174544,1.8656339186013904
210.62,0.003998356637143224,5.894662425220775,112800.15789696258,1.8659465419918277
210.68,0.004000947035346105,5.892983671919497,112786.92765637716,1.866259182484635
210.74,0.0040035374335489855,5.891305874537344,112773.70597889004,1.866571840017321
210.8,0.004006127831751867,5.889629032258063,112760.49285342374,1.8668845145275417
210.86,0.004008718229954748,5.887953144266336,112747.2882689222,1.8671972059531008
210.92,0.004011308628157627,5.886278209747771,112734.09221435078,1.8675099142319467
210.98,0.004013899026360508,5.884604227888898,112720.90467869623,1.8678226393021762
211.04,0.004017210987217034,5.88293119787718,112704.05610952813,1.8680745582954834
211.1,0.004020883729400384,5.881259118900994,112685.38841290785,1.8682961578068793
211.16,0.004024556471583733,5.879587990149649,112666.73775989105,1.8685178640384692
211.22,0.0040282292137670825,5.877917810813369,112648.10411938454,1.8687396767153914
211.28,0.004031901955950432,5.876248580083301,112629.48746038007,1.868961595563607
211.34,0.004035574698133782,5.8745802971515095,112610.88775195414,1.869183620309899
211.4,0.004039247440317131,5.872912961210973,112592.3049632676,1.8694057506818682
211.46,0.00404292018250048,5.871246571455594,112573.73906356543,1.8696279864079324
211.52,0.004046592924683829,5.86958112708018,112555.19002217636,1.8698503272173193
211.58,0.004050265666867179,5.86791662728046,112536.65780851258,1.8700727728400663
211.64,0.004053938409050527,5.8662530712530705,112518.14239206952,1.8702953230070178
211.7,0.004057611151233876,5.8645904581955595,112499.6437424254,1.8705179774498195
211.76,0.004061283893417225,5.862928787306384,112481.16182924104,1.870740735900918
211.82,0.0040649566356005746,5.861268057784912,112462.69662225954,1.8709635980935562
211.88,0.004068629377783925,5.859608268831414,112444.24809130598,1.871186563761771
211.94,0.004072302119967274,5.85794941964707,112425.81620628717,1.8714096326403915
212.0,0.004075974862150623,5.856291509433961,112407.40093719117,1.8716328044650317
212.06,0.004080104685413724,5.854634537395077,112386.71365536777,1.8718179620092277
212.12,0.0040842345086768254,5.852978502734301,112366.04730232507,1.872003273251064
212.18,0.004088364331939927,5.851323404656424,112345.40183575968,1.8721887377814475
212.24,0.004092494155203028,5.84966924236713,112324.77721349632,1.8723743551926204
212.3,0.004096623978466129,5.848016015073009,112304.17339348735,1.8725601250781603
212.36,0.004100753801729229,5.84636372198154,112283.59033381219,1.8727460470329709
212.42,0.004104883624992329,5.8447123623011015,112263.02799267689,1.8729321206532776
212.48,0.00410901344825543,5.843061935240963,112242.48632841355,1.8731183455366227
212.54,0.004113143271518531,5.8414124400112915,112221.96529947987,1.873304721281859
212.6,0.0041172730947816325,5.839763875823142,112201.46486445861,1.8734912474891439
212.66,0.004121402918044734,5.83811624188846,112180.9849820571,1.8736779237599361
212.72,0.004125532741307835,5.836469537420081,112160.52561110673,1.8738647496969876
212.78,0.004129662564570935,5.834823761631732,112140.08671056248,1.8740517249043402
212.84,0.0041337923878340364,5.833178913738019,112119.66823950237,1.8742388489873183
212.9,0.004137922211097138,5.831534992954438,112099.27015712702,1.8744261215525255
212.96,0.004142052034360239,5.829891998497369,112078.89242275922,1.8746135422078398
213.02,0.004146296058625423,5.828249929584076,112057.97234500338,1.874791697103452
213.08,0.004150768484894773,5.8266087854327,112035.94956483989,1.8749512008159983
213.14,0.00415524091116412,5.824968565262269,112013.9505013073,1.8751108939845744
213.2,0.004159713337433469,5.8233292682926825,111991.97510337905,1.8752707760900427
213.26,0.004164185763702819,5.821690893744724,111970.02332019304,1.8754308466150575
213.32,0.004168658189972169,5.820053440840052,111948.09510105097,1.87559110504406
213.38,0.004173130616241518,5.8184169088012,111926.19039541771,1.8757515508632683
213.44,0.0041776030425108674,5.816781296851573,111904.30915292041,1.8759121835606705
213.5,0.004182075468780216,5.815146604215455,111882.45132334797,1.8760730026260168
213.56,0.004186547895049566,5.813512830117999,111860.61685665029,1.8762340075508104
213.62,0.004191020321318916,5.811879973785225,111838.8057029376,1.8763951978283022
213.68,0.004195492747588265,5.810248034444028,111817.01781247972,1.8765565729534806
213.74,0.004199965173857615,5.808617011322165,111795.25313570551,1.8767181324230664
213.8,0.004204437600126965,5.806986903648269,111773.51162320201,1.8768798757355019
213.86,0.004208910026396314,5.805357710651827,111751.7932257139,1.877041802390946
213.92,0.004213382452665661,5.803729431563201,111730.09789414282,1.8772039118912667
213.98,0.004217854878935011,5.802102065613608,111708.42557954666,1.8773662037400325
214.04,0.004222732175783642,5.800475612035132,111684.81753781298,1.8774957504768512
214.1,0.0042278119079219145,5.798850070060719,111660.25860036857,1.8776090850454632
214.16,0.004232891640060186,5.797225438924168,111635.72915287215,1.8777226841750354
214.22,0.004237971372198459,5.795601717860143,111611.22912458662,1.8778365470923348
214.28,0.0042430511043367305,5.7939789061041616,111586.75844502909,1.8779506730270732
