λ (nm),T,hv,α (cm^-1),k
200.0,0.002596455835866505,6.207668999999998,123300.52374395942,1.9368000978889839
200.06,0.0025723057550092634,6.205807257822653,123494.05447470753,1.9404220235202443
200.12,0.0025481556741520223,6.203946632020787,123689.41076428392,1.9440744661521752
200.18,0.0025240055932947807,6.202087121590568,123886.62738160162,1.9477579982333488
200.24,0.002499855512437539,6.200228725529364,124085.74009842477,1.9514732086393691
200.3,0.002475705431580298,6.198371442835746,124286.78572831104,1.955220703309121
200.36,0.0024515553507230563,6.196515272509482,124489.80216746232,1.9590011059121573
200.42,0.0024274052698658264,6.194660213551542,124694.82843759778,1.9628150585490658
200.48,0.002403255189008585,6.192806264964086,124901.90473097075,1.966663222486816
200.54,0.002379105108151343,6.190953425750473,125111.07245765804,1.970546278931156
200.6,0.002354955027294102,6.189101694915253,125322.3742952628,1.9744649298383858
200.66,0.0023308049464368604,6.187251071464168,125535.85424117853,1.97841989876889
200.72,0.002306654865579619,6.1854015544041445,125751.5576675753,1.9824119317850653
200.78,0.0022825047847223777,6.1835531427433015,125969.53137927939,1.9864417983964324
200.84,0.002258354703865136,6.181705835490937,126189.82367473173,1.9905102925549436
200.9,0.0022342046230078945,6.17985963165754,126412.48441022303,1.9946182337037213
200.96,0.0022100545421506533,6.178014530254776,126637.56506761996,1.99876646788271
201.02,0.002187090051739944,6.176170530295491,126853.88906626718,2.00277857262163
201.08,0.0021664967422222975,6.174327630793712,127049.81722936213,2.0064706090945377
201.14,0.0021459034327046605,6.172485830764642,127247.61667999689,2.0101940538092786
201.2,0.002125310123187014,6.170645129224652,127447.32350804667,2.0139495035203825
201.26,0.0021047168136693675,6.168805525191294,127648.97485761099,2.017737572326699
201.32,0.002084123504151721,6.166967017683289,127852.60896847835,2.0215588923518633
201.38,0.0020635301946340745,6.165129605720527,128058.26521964892,2.0254141144584814
201.44,0.0020429368851164276,6.163293288324066,128265.9841750404,2.0293039089980898
201.5,0.002022343575598781,6.161458064516127,128475.80763150888,2.0332289665990375
201.56,0.0020017502660811346,6.159623933320103,128687.77866932772,2.037189998994646
201.62,0.001981156956563488,6.157790893760539,128901.94170527621,2.0411877398941156
201.68,0.0019605636470458416,6.155958944863149,129118.34254850216,2.0452229458988747
201.74,0.0019399703375281951,6.1541280856548015,129337.02845933387,2.049296397467243
201.8,0.0019193770280105484,6.152298315163527,129558.04821123053,2.0534088999304934
201.86,0.001898783718492902,6.150469632418506,129781.45215607404,2.0575612845636444
201.92,0.0018781904089752652,6.148642036450079,130007.29229302087,2.0617544097145575
201.98,0.0018575970994576187,6.146815526289731,130235.62234115027,2.0659891619952035
202.04,0.0018407648260470063,6.144990100970105,130424.13957296242,2.069594309121335
202.1,0.0018258130706899126,6.143165759524987,130593.04685029441,2.0728899661951896
202.16,0.0018108613153328189,6.141342500989316,130763.34302768417,2.0762092675950625
202.22,0.0017959095599757251,6.139520324399168,130935.0511360905,2.079552598741162
202.28,0.0017809578046186314,6.1376992287917735,131108.1947841192,2.0829203546649175
202.34,0.0017660060492615376,6.135879213205495,131282.7981775039,2.0863129403321725
202.4,0.001751054293904444,6.1340602766798416,131458.88613941442,2.089730770980088
202.46,0.0017361025385473502,6.132242418255457,131636.48413163656,2.093174272468473
202.52,0.0017211507831902564,6.130425636974126,131815.61827666737,2.0966438816462754
202.58,0.0017061990278331627,6.128609931878763,131996.3153807749,2.1001400467340443
202.64,0.001691247272476076,6.126795302013423,132178.6029580721,2.103663227723186
202.7,0.0016762955171189824,6.124981746423286,132362.5092556606,2.1072138967929317
202.76,0.0016613437617618886,6.123169264154665,132548.06327989988,2.110792538745933
202.82,0.0016463920064047949,6.121357854255003,132735.2948238646,2.1143996514635375
202.88,0.0016314402510477011,6.1195475157728705,132924.2344960542,2.1180357463817874
202.94,0.0016164884956906074,6.117738247757957,133114.91375042437,2.1217013489892964
203.0,0.0016015367403335137,6.115930049261083,133307.36491781363,2.1253969993482262
203.06,0.0015922675661398092,6.114122919334186,133427.57714648618,2.1279423756038827
203.12,0.0015829983919461047,6.112316857030327,133548.4912215013,2.1305000813930657
203.18,0.0015737292177524002,6.110511861403681,133670.11538632194,2.133070258184767
203.24,0.0015644600435586957,6.108707931509544,133792.45803050353,2.1356530499353554
203.3,0.0015551908693649914,6.106905066404328,133915.52769316663,2.1382486031474666
203.36,0.0015459216951712869,6.105103265145554,134039.3330665733,2.1408570669306486
203.42,0.0015366525209775867,6.103302526791859,134163.88299981115,2.14347859306383
203.48,0.0015273833467838822,6.101502850402988,134289.1865025888,2.146113336059671
203.54,0.0015181141725901777,6.099704235039795,134415.2527491467,2.148761453230864
203.6,0.0015088449983964732,6.097906679764244,134542.0910822879,2.1514231047584675
203.66,0.001499575824202769,6.096110183639398,134669.71101753297,2.1540984537623378
203.72,0.0014903066500090644,6.094314745729433,134798.12224740372,2.1567876663737353
203.78,0.00148103747581536,6.092520365099617,134927.3346458405,2.159490911810198
203.84,0.0014717683016216554,6.0907270408163265,135057.35827275823,2.162208362452752
203.9,0.001462499127427951,6.088934771947032,135188.20337874626,2.164940193925561
203.96,0.0014532299532342464,6.087143557560306,135319.88040991794,2.167686585178102
204.02,0.0014453567376691869,6.085353396725811,135432.3879435964,2.17012705130831
204.08,0.0014402754393614153,6.083564288514307,135505.32510485174,2.1719343278134073
204.14,0.001435194141053646,6.081776231997648,135578.52004399957,2.17374642471845
204.2,0.0014301128427458745,6.079989226248776,135651.9745896056,2.175563374993915
204.26,0.0014250315444381029,6.078203270341722,135725.69058976136,2.177385211957989
204.32,0.001419950246130331,6.076418363351604,135799.6699123631,2.179211969281507
204.38,0.0014148689478225595,6.074634504354633,135873.91444539616,2.181043680992981
204.44,0.001409787649514788,6.072851692428094,135948.42609722365,2.1828803814837126
204.5,0.0014047063512070163,6.071069926650367,136023.20679688104,2.1847221055129995
204.56,0.0013996250528992447,6.0692892061008985,136098.25849437574,2.186568888213439
204.62,0.0013945437545914731,6.067509529860227,136173.58316099222,2.188420765096326
204.68,0.0013894624562837015,6.065730897009965,136249.18278960267,2.1902777720571462
204.74,0.0013843811579759297,6.063953306632802,136325.0593949834,2.192139945381174
204.8,0.0013792998596681581,6.062176757812498,136401.21501413698,2.1940073217491687
204.86,0.0013742185613603865,6.0604012496338955,136477.65170662035,2.1958799382431806
204.92,0.0013691372630526173,6.058626781182899,136554.3715548791,2.1977578323524583
204.98,0.0013640559647448457,6.056853351546493,136631.37666458794,2.199641041979473
205.04,0.0013604688877333797,6.055080959812718,136685.91035215024,2.2011631019859963
205.1,0.0013576289213700673,6.053309605070696,136729.1879315255,2.202504356757858
205.16,0.0013547889550067547,6.0515392864106055,136772.55613628746,2.2038474796788803
205.22,0.0013519489886434422,6.049770002923691,136816.01534678077,2.2051924781606216
205.28,0.0013491090222801296,6.048001753702259,136859.56594574946,2.206539359660494
205.34,0.0013462690559168172,6.0462345378396805,136903.20831835738,2.2078881316821506
205.4,0.0013434290895535045,6.0444683544303786,136946.94285220836,2.209238801775866
205.46,0.001340589123190192,6.042703202569843,136990.76993736697,2.210591377538929
205.52,0.0013377491568268794,6.040939081354611,137034.68996637943,2.2119458666160385
205.58,0.001334909190463567,6.039175989882284,137078.7033342947,2.213302276699704
205.64,0.001332069224100256,6.0374139272515075,137122.81043868576,2.214660615530645
205.7,0.0013292292577369432,6.035652892561983,137167.0116796712,2.216020890898202
205.76,0.0013263892913736308,6.033892884914463,137211.307459937,2.217383110640747
205.82,0.0013235493250103182,6.032133903410747,137255.6981847584,2.218747282646098
205.88,0.0013207093586470057,6.030375947153681,137300.18426202243,2.220113414851945
205.94,0.001317869392283693,6.028619015247158,137344.7661022501,2.2214815152462686
206.0,0.0013150294259203807,6.026863106796116,137389.4441186194,2.2228515918677765
206.06,0.0013129493507156352,6.025108220906532,137422.22887508737,2.2240296100676455
206.12,0.00131086927551089,6.0233543566854255,137455.06561288278,2.2252087787628825
206.18,0.0013087892003061446,6.0216015132408565,137487.95449710367,2.226389101361845
206.24,0.0013067091251013992,6.019849689681923,137520.89569363598,2.2275705812887647
206.3,0.0013046290498966537,6.018098885118759,137553.88936915834,2.228753221983844
206.36,0.0013025489746919085,6.01634909866253,137586.93569114734,2.2299370269033605
206.42,0.0013004688994871642,6.014600329425443,137620.03482788257,2.231121999519765
206.48,0.0012983888242824187,6.012852576520728,137653.1869484517,2.232308143321789
206.54,0.0012963087490776733,6.011105839062651,137686.39222275576,2.2334954618145404
206.6,0.001294228673872928,6.009360116166505,137719.6508215143,2.2346839585196148
206.66,0.0012921485986681826,6.007615406948611,137752.96291627063,2.235873636975194
206.72,0.0012900685234634372,6.005871710526315,137786.32867939718,2.2370645007361567
206.78,0.0012879884482586918,6.004129026017989,137819.74828410085,2.238256553374182
206.84,0.0012859083730539466,6.002387352543027,137853.22190442847,2.239449798477857
206.9,0.0012838282978492011,6.000646689221846,137886.74971527205,2.2406442396527866
206.96,0.0012817482226444557,5.998907035175879,137920.3318923744,2.2418398805217
207.02,0.0012796781457837868,5.997168389527581,137953.80679922143,2.2430340937545425
207.08,0.0012776280656112706,5.995430751400424,137987.01175396628,2.2442242319731656
207.14,0.0012755779854387553,5.993694119918895,138020.2700321384,2.245415550645958
207.2,0.0012735279052662391,5.991958494208494,138053.58180527616,2.2466080533182837
207.26,0.001271477825093723,5.990223873395735,138086.94724574705,2.2478017435522357
207.32,0.0012694277449212068,5.9884902566081415,138120.3665267529,2.248996624926741
207.38,0.0012673776647486906,5.986757642974249,138153.83982233546,2.250192701037673
207.44,0.0012653275845761745,5.985026031623602,138187.3673073817,2.2513899754979554
207.5,0.0012632775044036583,5.983295421686746,138220.94915762928,2.252588451937673
207.56,0.0012612274242311422,5.981565812295239,138254.5855496722,2.2537881340041817
207.62,0.001259177344058626,5.979837202581638,138288.2766609663,2.2549890253622213
207.68,0.0012571272638861098,5.978109591679506,138322.0226698349,2.256191129694024
207.74,0.0012550771837135937,5.976382978723403,138355.82375547432,2.257394450699429
207.8,0.0012530271035410775,5.974657362848892,138389.68009795988,2.2585989920959983
207.86,0.0012509770233685613,5.9729327431925325,138423.5918782514,2.2598047576191282
207.92,0.001248926943196046,5.971209118891881,138457.55927819904,2.261011751022165
207.98,0.0012468768630235299,5.9694864890854875,138491.58248054935,2.262219976076525
208.04,0.0012446974731026182,5.9677648529129,138527.81311070427,2.2634645898895176
208.1,0.0012424534283075085,5.9660442095146555,138565.18492583442,2.2647281968503408
208.16,0.001240209383512399,5.964324558032282,138602.62430074147,2.2659932605567588
208.22,0.0012379653387172894,5.962605897608298,138640.13148013345,2.2672597859657224
208.28,0.00123572129392218,5.96088822738621,138677.70671005026,2.268527778060583
208.34,0.0012334772491270703,5.959171546510511,138715.3502378735,2.2697972418512835
208.4,0.0012312332043319608,5.957455854126679,138753.06231233611,2.2710681823745493
208.46,0.0012289891595368512,5.955741149381176,138790.84318353233,2.2723406046940804
208.52,0.0012267451147417417,5.954027431421445,138828.69310292765,2.2736145139007484
208.58,0.001224501069946632,5.952314699395913,138866.61232336872,2.2748899151127926
208.64,0.0012222570251515237,5.950602952453988,138904.60109909368,2.2761668134760176
208.7,0.001220012980356414,5.948892189746046,138942.65968574223,2.277445214163995
208.76,0.0012177689355613046,5.947182410423452,138980.78834036604,2.278725122378266
208.82,0.001215524890766195,5.94547361363854,139018.9873214391,2.2800065433485432
208.88,0.0012132808459710855,5.943765798544618,139057.25688886837,2.2812894823329204
208.94,0.0012110368011759758,5.942058964295969,139095.59730400416,2.2825739446180755
209.0,0.0012087927563808663,5.940353110047846,139134.00882965105,2.2838599355194846
209.06,0.0012063282256903883,5.938648234956471,139176.2766816686,2.2852096075229684
209.12,0.0012038636949999104,5.936944338179035,139218.63097534265,2.2865610976306363
209.18,0.0012013991643094323,5.935241418873696,139261.0720649602,2.2879144128850966
209.24,0.0011989346336189542,5.933539476199579,139303.60030699085,2.289269560371501
209.3,0.0011964701029284763,5.931838509316768,139346.21606010466,2.290626547217895
209.36,0.0011940055722379982,5.930138517386319,139388.91968519049,2.291985380595567
209.42,0.0011915410415475215,5.928439499570241,139431.71154537413,2.2933460677194004
209.48,0.0011890765108570434,5.9267414550315065,139474.59200603698,2.2947086158482355
209.54,0.0011866119801665655,5.925044382934045,139517.5614348348,2.296073032285228
209.6,0.0011841474494760874,5.923348282442748,139560.6202017163,2.297439324378211
209.66,0.0011816829187856093,5.921653152723456,139603.76867894272,2.2988074995200707
209.72,0.0011792183880951314,5.919958992942971,139647.00724110682,2.3001775651491134
209.78,0.0011767538574046534,5.918265802269043,139690.33626515252,2.3015495287494434
209.84,0.0011742893267141753,5.916573579870376,139733.7561303945,2.3029233978513433
209.9,0.0011718247960236974,5.914882324916626,139777.26721853827,2.3042991800316592
209.96,0.0011693602653332193,5.913192036578395,139820.8699137002,2.305676882914188
210.02,0.0011668552538404004,5.911502714027234,139865.28307349663,2.307068365301656
210.08,0.0011642692807428993,5.909814356435644,139911.2317909026,2.308485602428139
210.14,0.0011616833076453998,5.908126962977062,139957.2826791313,2.3099049588748155
210.2,0.0011590973345478987,5.90644053282588,140003.43619356642,2.311326443604052
210.26,0.0011565113614503979,5.904755065157423,140049.69279264272,2.3127500656371835
210.32,0.001153925388352897,5.903070559147965,140096.05293787373,2.3141758340550442
210.38,0.0011513394152553962,5.901387013974713,140142.51709387926,2.315603757998492
210.44,0.0011487534421578951,5.899704428815814,140189.08572841328,2.3170338466689437
210.5,0.0011461674690603943,5.898022802850356,140235.75931239224,2.3184661093289187
210.56,0.0011435814959628934,5.896342135258357,140282.53831992365,2.3199005553025835
210.62,0.0011409955228653924,5.894662425220775,140329.42322833496,2.3213371939763054
210.68,0.0011384095497678915,5.892983671919497,140376.41451820268,2.3227760347992117
210.74,0.0011358235766703907,5.891305874537344,140423.51267338218,2.3242170872837566
210.8,0.0011332376035728898,5.889629032258063,140470.71818103737,2.3256603610062943
210.86,0.0011306516304753888,5.887953144266336,140518.031531671,2.327105865607653
210.92,0.0011280656573778892,5.886278209747771,140565.4532191552,2.328553610793725
210.98,0.0011254796842803882,5.884604227888898,140612.98374076255,2.3300036063360565
211.04,0.0011229989257520424,5.88293119787718,140658.68315112358,2.331423699095648
211.1,0.001120570774508274,5.881259118900994,140703.51132271008,2.332829777636407
211.16,0.0011181426232645057,5.879587990149649,140748.4367373523,2.3342378913970383
211.22,0.0011157144720207372,5.877917810813369,140793.4598178547,2.335648048766262
211.28,0.0011132863207769688,5.876248580083301,140838.58098978497,2.3370602581866224
211.34,0.0011108581695332006,5.8745802971515095,140883.80068149863,2.3384745281549573
211.4,0.0011084300182894321,5.872912961210973,140929.11932416316,2.3398908672228678
211.46,0.0011060018670456637,5.871246571455594,140974.5373517827,2.3413092839971936
211.52,0.0011035737158018955,5.86958112708018,141020.05520122306,2.3427297871404966
211.58,0.001101145564558127,5.86791662728046,141065.67331223685,2.3441523853715416
211.64,0.0010987174133143599,5.8662530712530705,141111.39212748897,2.3455770874657937
211.7,0.0010962892620705914,5.8645904581955595,141157.21209258257,2.3470039022559157
211.76,0.0010938611108268232,5.862928787306384,141203.13365608483,2.3484328386322657
211.82,0.0010914329595830548,5.861268057784912,141249.15726955346,2.3498639055434087
211.88,0.0010890048083392863,5.859608268831414,141295.28338756337,2.3512971119966304
211.94,0.001086576657095518,5.85794941964707,141341.51246773347,2.3527324670584546
212.0,0.0010841485058517497,5.856291509433961,141387.84497075414,2.354169979855173
212.06,0.001082293104631305,5.854634537395077,141423.31860169215,2.3554270731445817
212.12,0.00108043770341086,5.852978502734301,141458.85309813425,2.3566855147762173
212.18,0.0010785823021904153,5.851323404656424,141494.448669305,2.357945309097186
212.24,0.0010767269009699706,5.84966924236713,141530.10552550966,2.3592064604765497
212.3,0.0010748714997495256,5.848016015073009,141565.8238781416,2.36046897330548
212.36,0.001073016098529081,5.84636372198154,141601.60393968978,2.361732851997404
212.42,0.0010711606973086369,5.8447123623011015,141637.44592374653,2.3629981009881638
212.48,0.0010693052960881922,5.843061935240963,141673.35004501496,2.3642647247361634
212.54,0.0010674498948677474,5.8414124400112915,141709.31651931675,2.365532727722527
212.6,0.0010655944936473025,5.839763875823142,141745.34556360004,2.3668021144512554
212.66,0.0010637390924268578,5.83811624188846,141781.43739594717,2.368072889449382
212.72,0.001061883691206413,5.836469537420081,141817.59223558253,2.3693450572671324
212.78,0.0010600282899859681,5.834823761631732,141853.81030288085,2.3706186224780876
212.84,0.0010581728887655234,5.833178913738019,141890.0918193749,2.3718935896793414
212.9,0.0010563174875450787,5.831534992954438,141926.4370077639,2.3731699634916676
212.96,0.0010544620863246338,5.829891998497369,141962.84609192144,2.37444774855968
213.02,0.0010529198684347152,5.828249929584076,141993.15827707702,2.3756238722914063
213.08,0.0010520040172058486,5.8266087854327,142011.18028811543,2.3765946023994835
213.14,0.0010510881659769823,5.824968565262269,142029.21799554903,2.3775657651182986
213.2,0.0010501723147481156,5.8233292682926825,142047.27142674348,2.378537361127985
213.26,0.0010492564635192487,5.821690893744724,142065.34060913598,2.3795093911103873
213.32,0.001048340612290382,5.820053440840052,142083.42557023565,2.3804818557490743
213.38,0.0010474247610615154,5.8184169088012,142101.5263376237,2.381454755729341
213.44,0.0010465089098326487,5.816781296851573,142119.6429389538,2.382428091738217
213.5,0.001045593058603782,5.815146604215455,142137.77540195212,2.383401864464468
213.56,0.0010446772073749153,5.813512830117999,142155.92375441792,2.3843760745986105
213.62,0.0010437613561460487,5.811879973785225,142174.0880242234,2.385350722832906
213.68,0.001042845504917182,5.810248034444028,142192.26823931426,2.386325809861376
213.74,0.0010419296536883153,5.808617011322165,142210.4644277099,2.387301336379807
213.8,0.0010410138024594484,5.806986903648269,142228.67661750357,2.3882773030857534
213.86,0.0010400979512305817,5.805357710651827,142246.9048368627,2.3892537106785428
213.92,0.0010391821000017155,5.803729431563201,142265.14911402916,2.390230559859287
213.98,0.0010382662487728488,5.802102065613608,142283.40947731963,2.3912078513308868
214.04,0.0010380640750882128,5.800475612035132,142287.44261333582,2.3919461457893347
214.1,0.0010382187401756923,5.798850070060719,142284.35714942764,2.39256477633428
214.16,0.0010383734052631717,5.797225438924168,142281.2721451317,2.393183385530132
214.22,0.0010385280703506512,5.795601717860143,142278.187600311,2.393801973381082
