"Sam8V6 - RawData"
"Wavelength nm.","T%"
190.00,1.82506
191.00,0.57785
192.00,1.18572
193.00,0.45808
194.00,0.47790
195.00,0.38219
196.00,0.27537
197.00,0.26808
198.00,0.20567
199.00,0.14572
200.00,0.28877
201.00,0.17818
202.00,0.12979
203.00,0.14069
204.00,0.12955
205.00,0.13203
206.00,0.09410
207.00,0.08769
208.00,0.07514
209.00,0.13877
210.00,0.09431
211.00,0.09135
212.00,0.09389
213.00,0.07311
214.00,0.05565
215.00,0.06044
216.00,0.05121
217.00,0.13587
218.00,0.07864
219.00,0.05955
220.00,0.04541
221.00,0.11831
222.00,0.10503
223.00,0.11773
224.00,0.12682
225.00,0.15413
226.00,0.14754
227.00,0.14491
228.00,0.20572
229.00,0.25945
230.00,0.34433
231.00,0.46448
232.00,0.56512
233.00,0.67694
234.00,0.79786
235.00,0.97798
236.00,1.14663
237.00,1.32447
238.00,1.56990
239.00,1.83525
240.00,2.16726
241.00,2.56111
242.00,2.95241
243.00,3.46683
244.00,4.10684
245.00,4.80506
246.00,5.53146
247.00,6.54008
248.00,7.54963
249.00,8.73025
250.00,10.12171
251.00,11.67764
252.00,13.58782
253.00,15.60140
254.00,17.95933
255.00,20.48003
256.00,23.07987
257.00,25.28301
258.00,27.52738
259.00,29.64548
260.00,31.30419
261.00,33.14854
262.00,34.90474
263.00,36.05327
264.00,37.52284
265.00,38.77145
266.00,39.66286
267.00,40.46086
268.00,40.79470
269.00,41.70929
270.00,42.01906
271.00,41.85470
272.00,42.23972
273.00,42.09253
274.00,41.87727
275.00,41.61533
276.00,41.16077
277.00,41.23296
278.00,40.91057
279.00,40.99011
280.00,41.31834
281.00,40.94045
282.00,41.16783
283.00,41.38076
284.00,41.38873
285.00,41.79553
286.00,41.99479
287.00,42.21144
288.00,42.75367
289.00,43.15705
290.00,43.59654
291.00,43.88074
292.00,43.95014
293.00,44.31799
294.00,44.48676
295.00,45.23114
296.00,45.32602
297.00,45.58122
298.00,45.28545
299.00,45.16074
300.00,45.39395
301.00,45.38077
302.00,44.77445
303.00,44.83456
304.00,45.03191
305.00,44.27357
306.00,44.82385
307.00,44.47461
308.00,44.49471
309.00,44.08217
310.00,44.27142
311.00,43.89910
312.00,43.70982
313.00,43.74992
314.00,44.07403
315.00,44.11436
316.00,44.14534
317.00,44.31093
318.00,44.03142
319.00,44.04146
320.00,44.17720
321.00,44.51712
322.00,44.88887
323.00,45.09173
324.00,44.66903
325.00,45.10509
326.00,45.33097
327.00,45.58770
328.00,45.35207
329.00,45.81476
330.00,46.24353
331.00,46.33279
332.00,46.31588
333.00,46.67935
334.00,46.68863
335.00,46.94840
336.00,46.75363
337.00,47.11510
338.00,47.03339
339.00,46.96170
340.00,46.93919
341.00,46.67767
342.00,46.94737
343.00,46.98374
344.00,46.89576
345.00,46.55970
346.00,46.64171
347.00,46.52733
348.00,46.32758
349.00,46.28459
350.00,46.06624
351.00,46.00288
352.00,46.04971
353.00,45.90987
354.00,45.98433
355.00,45.72363
356.00,45.52368
357.00,45.53914
358.00,45.34876
359.00,45.66430
360.00,45.46328
361.00,45.47647
362.00,45.58149
363.00,45.38545
364.00,45.54527
365.00,45.51491
366.00,45.39900
367.00,45.54043
368.00,45.72354
369.00,45.71616
370.00,45.74366
371.00,45.70998
372.00,46.05734
373.00,46.14333
374.00,46.24822
375.00,46.61736
376.00,46.61382
377.00,46.72407
378.00,46.95542
379.00,47.04837
380.00,47.10450
381.00,47.33183
382.00,47.45708
383.00,47.57468
384.00,47.63975
385.00,47.89952
386.00,47.87559
387.00,47.92971
388.00,48.07148
389.00,48.09772
390.00,48.37176
391.00,48.37445
392.00,48.45535
393.00,48.54979
394.00,48.50371
395.00,48.60651
396.00,48.58742
397.00,48.82389
398.00,48.80971
399.00,48.75424
400.00,48.62777
401.00,48.76262
402.00,48.79482
403.00,48.66695
404.00,48.69938
405.00,48.59695
406.00,48.55415
407.00,48.67822
408.00,48.51246
409.00,48.43299
410.00,48.27038
411.00,48.29293
412.00,48.25763
413.00,48.25658
414.00,48.07764
415.00,48.05363
416.00,47.87082
417.00,47.96148
418.00,47.86220
419.00,47.81157
420.00,47.76439
421.00,47.77365
422.00,47.69076
423.00,47.62772
424.00,47.41114
425.00,47.56640
426.00,47.43923
427.00,47.37255
428.00,47.36838
429.00,47.38399
430.00,47.45074
431.00,47.33849
432.00,47.36254
433.00,47.42106
434.00,47.41873
435.00,47.42845
436.00,47.28916
437.00,47.45612
438.00,47.41272
439.00,47.55621
440.00,47.53027
441.00,47.52023
442.00,47.61375
443.00,47.64283
444.00,47.62255
445.00,47.68411
446.00,47.78739
447.00,47.89909
448.00,47.82165
449.00,47.99048
450.00,48.02665
451.00,48.14986
452.00,48.26242
453.00,48.31366
454.00,48.45284
455.00,48.55469
456.00,48.66967
457.00,48.65803
458.00,48.75530
459.00,48.81924
460.00,48.95070
461.00,48.97383
462.00,49.15784
463.00,49.21226
464.00,49.26721
465.00,49.37367
466.00,49.38134
467.00,49.48029
468.00,49.73341
469.00,49.78822
470.00,49.79712
471.00,49.79254
472.00,49.94719
473.00,49.99730
474.00,50.04337
475.00,50.13050
476.00,50.15175
477.00,50.23259
478.00,50.41028
479.00,50.46732
480.00,50.52176
481.00,50.48761
482.00,50.45474
483.00,50.53383
484.00,50.53077
485.00,50.60248
486.00,50.73179
487.00,50.65061
488.00,50.63872
489.00,50.68957
490.00,50.67265
491.00,50.71177
492.00,50.72885
493.00,50.69226
494.00,50.71921
495.00,50.80020
496.00,50.76206
497.00,50.69271
498.00,50.67930
499.00,50.71731
500.00,50.70851
501.00,50.63103
502.00,50.65506
503.00,50.66830
504.00,50.58019
505.00,50.49515
506.00,50.48046
507.00,50.43157
508.00,50.46417
509.00,50.46098
510.00,50.40862
511.00,50.35833
512.00,50.25139
513.00,50.25776
514.00,50.21360
515.00,50.24310
516.00,50.04710
517.00,50.17111
518.00,50.15360
519.00,50.08087
520.00,50.08088
521.00,50.00226
522.00,49.96269
523.00,49.88131
524.00,49.83342
525.00,49.74534
526.00,49.80001
527.00,49.83613
528.00,49.79264
529.00,49.76895
530.00,49.67909
531.00,49.71176
532.00,49.57739
533.00,49.74249
534.00,49.60473
535.00,49.61001
536.00,49.71623
537.00,49.55697
538.00,49.52577
539.00,49.57021
540.00,49.51094
541.00,49.52044
542.00,49.48132
543.00,49.48038
544.00,49.47180
545.00,49.58915
546.00,49.51163
547.00,49.49059
548.00,49.58043
549.00,49.45346
550.00,49.57834
551.00,49.56055
552.00,49.58331
553.00,49.61246
554.00,49.61461
555.00,49.66751
556.00,49.71291
557.00,49.73547
558.00,49.69658
559.00,49.66038
560.00,49.73539
561.00,49.79536
562.00,49.79899
563.00,49.80282
564.00,49.96582
565.00,49.93390
566.00,49.90211
567.00,50.01867
568.00,49.99815
569.00,50.13506
570.00,50.16317
571.00,50.15141
572.00,50.21697
573.00,50.24174
574.00,50.26417
575.00,50.33111
576.00,50.39033
577.00,50.45859
578.00,50.45117
579.00,50.57932
580.00,50.50320
581.00,50.70900
582.00,50.73664
583.00,50.73009
584.00,50.85596
585.00,50.88999
586.00,50.94021
587.00,50.96248
588.00,50.97718
589.00,51.10180
590.00,51.15542
591.00,51.18906
592.00,51.28457
593.00,51.37015
594.00,51.34974
595.00,51.38423
596.00,51.52989
597.00,51.51400
598.00,51.51324
599.00,51.67766
600.00,51.68824
601.00,51.72511
602.00,51.96213
603.00,51.87202
604.00,51.99106
605.00,52.07704
606.00,52.05318
607.00,52.05954
608.00,52.25894
609.00,52.26721
610.00,52.27473
611.00,52.36501
612.00,52.37359
613.00,52.39137
614.00,52.56282
615.00,52.58653
616.00,52.62026
617.00,52.69132
618.00,52.64484
619.00,52.67914
620.00,52.73032
621.00,52.81727
622.00,52.80355
623.00,52.84527
624.00,52.90132
625.00,52.95444
626.00,52.92850
627.00,52.99023
628.00,53.07979
629.00,53.02314
630.00,53.11669
631.00,53.21262
632.00,53.12461
633.00,53.14459
634.00,53.24961
635.00,53.36887
636.00,53.21009
637.00,53.34228
638.00,53.46606
639.00,53.28397
640.00,53.38328
641.00,53.41731
642.00,53.38961
643.00,53.31450
644.00,53.40551
645.00,53.43720
646.00,53.49975
647.00,53.39294
648.00,53.35338
649.00,53.49177
650.00,53.53700
651.00,53.52995
652.00,53.50925
653.00,53.53984
654.00,53.42695
655.00,53.64736
656.00,53.54970
657.00,53.52753
658.00,53.58300
659.00,53.53125
660.00,53.50679
661.00,53.46725
662.00,53.68453
663.00,53.63320
664.00,53.56982
665.00,53.54012
666.00,53.41601
667.00,53.49174
668.00,53.48514
669.00,53.52007
670.00,53.47403
671.00,53.32724
672.00,53.40381
673.00,53.57791
674.00,53.35048
675.00,53.41184
676.00,53.40531
677.00,53.50623
678.00,53.44327
679.00,53.34280
680.00,53.44093
681.00,53.23546
682.00,53.22616
683.00,53.25997
684.00,53.34299
685.00,53.26754
686.00,53.23172
687.00,53.32209
688.00,53.23767
689.00,53.15313
690.00,53.22009
691.00,53.42742
692.00,53.11067
693.00,53.23148
694.00,53.21530
695.00,53.09730
696.00,53.06445
697.00,53.16563
698.00,53.12802
699.00,53.14251
700.00,53.08279
701.00,53.10034
702.00,52.91492
703.00,53.08557
704.00,52.90459
705.00,52.89879
706.00,52.83602
707.00,53.23999
708.00,52.82885
709.00,52.90834
710.00,52.92977
711.00,52.83750
712.00,52.90828
713.00,53.01476
714.00,52.84415
715.00,52.71804
716.00,52.85457
717.00,52.89362
718.00,52.90081
719.00,52.90254
720.00,52.71000
721.00,52.80154
722.00,52.88156
723.00,52.85520
724.00,52.60519
725.00,52.85658
726.00,52.75105
727.00,52.79066
728.00,52.74643
729.00,52.55167
730.00,52.96502
731.00,52.61618
732.00,52.78524
733.00,52.77773
734.00,53.03581
735.00,52.92342
736.00,52.90793
737.00,52.57081
738.00,53.04299
739.00,52.95069
740.00,52.96072
741.00,52.51108
742.00,52.75933
743.00,52.83431
744.00,52.81558
745.00,53.08740
746.00,52.87642
747.00,52.69482
748.00,52.99532
749.00,52.74174
750.00,52.64340
751.00,52.88282
752.00,52.90030
753.00,52.99293
754.00,52.98081
755.00,53.21018
756.00,52.73836
757.00,52.94598
758.00,52.56202
759.00,53.00606
760.00,53.08650
761.00,53.31467
762.00,52.85802
763.00,52.76946
764.00,53.32913
765.00,53.16550
766.00,53.05690
767.00,53.29140
768.00,53.00626
769.00,53.15034
770.00,53.07999
771.00,53.08997
772.00,53.17577
773.00,53.21954
774.00,53.48216
775.00,53.42845
776.00,53.00846
777.00,53.13622
778.00,53.23080
779.00,53.44498
780.00,53.11545
781.00,53.12828
782.00,52.98638
783.00,53.19597
784.00,53.43131
785.00,53.40884
786.00,53.20596
787.00,53.43351
788.00,53.54832
789.00,53.60991
790.00,53.49394
791.00,53.52634
792.00,53.39018
793.00,53.39707
794.00,53.30244
795.00,53.48327
796.00,53.51807
797.00,53.76483
798.00,53.85398
799.00,53.93569
800.00,54.00517
