"AcutallyMN1534front - RawData"
"Wavelength nm.","T%"
200.00,0.09665
201.00,0.00977
202.00,0.10167
203.00,0.12915
204.00,0.06427
205.00,0.00683
206.00,0.04354
207.00,0.01166
208.00,0.03853
209.00,0.04091
210.00,0.02864
211.00,0.00967
212.00,0.02326
213.00,0.05815
214.00,0.01587
215.00,0.02276
216.00,0.02978
217.00,0.01504
218.00,0.01664
219.00,0.01340
220.00,0.03133
221.00,0.02761
222.00,0.01655
223.00,0.01956
224.00,0.00308
225.00,0.01903
226.00,0.02006
227.00,0.01837
228.00,0.02807
229.00,0.03432
230.00,0.02455
231.00,0.02012
232.00,0.03284
233.00,0.05103
234.00,0.10736
235.00,0.21738
236.00,0.61629
237.00,1.31562
238.00,2.64596
239.00,4.62007
240.00,7.14374
241.00,10.36157
242.00,13.65548
243.00,16.61137
244.00,19.31226
245.00,21.64579
246.00,22.94180
247.00,24.03384
248.00,25.29295
249.00,25.70198
250.00,26.14600
251.00,26.88282
252.00,27.23792
253.00,27.26896
254.00,27.58353
255.00,27.94717
256.00,28.37616
257.00,28.56897
258.00,28.48735
259.00,28.47293
260.00,28.88371
261.00,29.20809
262.00,29.43920
263.00,29.10821
264.00,29.27621
265.00,29.66432
266.00,29.83902
267.00,30.12570
268.00,29.96131
269.00,29.77669
270.00,29.90509
271.00,30.03854
272.00,30.47289
273.00,30.54332
274.00,30.37816
275.00,30.33826
276.00,30.33840
277.00,30.48877
278.00,30.88370
279.00,31.20933
280.00,30.88754
281.00,30.91422
282.00,30.94933
283.00,31.06086
284.00,31.42164
285.00,31.77025
286.00,31.87045
287.00,32.00183
288.00,31.82204
289.00,31.50432
290.00,31.77956
291.00,32.02421
292.00,32.37103
293.00,32.71505
294.00,32.86590
295.00,32.65823
296.00,32.32277
297.00,32.22213
298.00,32.49058
299.00,32.78936
300.00,33.13788
301.00,33.33541
302.00,33.51360
303.00,33.21112
304.00,33.10040
305.00,33.01440
306.00,32.74330
307.00,32.82020
308.00,33.18930
309.00,33.50369
310.00,33.78573
311.00,33.63995
312.00,33.68860
313.00,33.25234
314.00,33.37871
315.00,33.36739
316.00,33.20900
317.00,33.80335
318.00,33.84578
319.00,34.16954
320.00,34.50266
321.00,34.41142
322.00,34.29174
323.00,34.12344
324.00,33.75194
325.00,34.37054
326.00,34.48320
327.00,34.80426
328.00,34.97754
329.00,35.38544
330.00,35.56462
331.00,35.49049
332.00,35.47935
333.00,35.33749
334.00,34.83273
335.00,34.92733
336.00,34.96481
337.00,35.15668
338.00,35.23195
339.00,35.69183
340.00,35.95918
341.00,36.06724
342.00,36.39177
343.00,36.19984
344.00,36.09082
345.00,35.79633
346.00,35.79311
347.00,35.59896
348.00,35.64223
349.00,35.80388
350.00,36.08264
351.00,36.30733
352.00,36.49800
353.00,36.62675
354.00,36.84843
355.00,36.96507
356.00,36.82120
357.00,36.82533
358.00,36.51775
359.00,36.32931
360.00,36.33121
361.00,36.11263
362.00,36.26912
363.00,36.52308
364.00,36.74672
365.00,37.03574
366.00,37.19887
367.00,37.88450
368.00,37.73424
369.00,37.72449
370.00,37.42434
371.00,37.32153
372.00,37.45145
373.00,36.89857
374.00,36.91078
375.00,36.82963
376.00,37.02954
377.00,37.15939
378.00,37.39045
379.00,37.63537
380.00,37.94840
381.00,38.11986
382.00,38.25246
383.00,38.45390
384.00,38.28704
385.00,38.36538
386.00,38.10730
387.00,37.90734
388.00,37.70104
389.00,37.58381
390.00,37.50550
391.00,37.44757
392.00,37.48884
393.00,37.57512
394.00,37.96309
395.00,38.19648
396.00,38.50389
397.00,38.80161
398.00,38.83466
399.00,39.14222
400.00,39.23348
401.00,39.09275
402.00,39.02389
403.00,38.92694
404.00,38.62405
405.00,38.51902
406.00,38.28470
407.00,38.15668
408.00,38.00312
409.00,38.23919
410.00,38.37699
411.00,38.52122
412.00,38.72780
413.00,39.05981
414.00,39.42320
415.00,39.60806
416.00,39.90607
417.00,39.97862
418.00,40.27981
419.00,40.19818
420.00,40.25680
421.00,40.13384
422.00,40.04937
423.00,39.96328
424.00,39.76459
425.00,39.63007
426.00,39.60516
427.00,39.65855
428.00,39.69334
429.00,39.82452
430.00,40.02578
431.00,40.31191
432.00,40.62725
433.00,40.95651
434.00,41.17287
435.00,41.44494
436.00,41.67535
437.00,41.93918
438.00,42.02675
439.00,42.12144
440.00,42.00208
441.00,41.90730
442.00,41.83686
443.00,41.57298
444.00,41.33538
445.00,41.09718
446.00,41.04289
447.00,40.85334
448.00,40.80384
449.00,40.84526
450.00,40.87216
451.00,41.06839
452.00,41.16365
453.00,41.44135
454.00,41.55234
455.00,41.89059
456.00,42.20282
457.00,42.45662
458.00,42.68226
459.00,42.88312
460.00,42.99940
461.00,43.05657
462.00,43.13559
463.00,43.03252
464.00,42.88587
465.00,42.74861
466.00,42.43695
467.00,42.38293
468.00,42.10531
469.00,41.93226
470.00,41.85315
471.00,41.60646
472.00,41.56102
473.00,41.57717
474.00,41.57582
475.00,41.67480
476.00,41.82678
477.00,42.06833
478.00,42.21322
479.00,42.51044
480.00,42.74057
481.00,42.98300
482.00,43.27985
483.00,43.42723
484.00,43.61811
485.00,43.75227
486.00,43.81050
487.00,43.82029
488.00,43.80928
489.00,43.60660
490.00,43.52528
491.00,43.40253
492.00,43.20484
493.00,43.03684
494.00,42.82441
495.00,42.68801
496.00,42.49175
497.00,42.31582
498.00,42.19154
499.00,42.16222
500.00,42.11163
501.00,42.17144
502.00,42.20497
503.00,42.29586
504.00,42.40855
505.00,42.66472
506.00,42.89109
507.00,43.07183
508.00,43.39003
509.00,43.52489
510.00,43.82454
511.00,43.97269
512.00,44.14003
513.00,44.22006
514.00,44.31353
515.00,44.32610
516.00,44.30185
517.00,44.31480
518.00,44.20429
519.00,44.15761
520.00,43.95795
521.00,43.77462
522.00,43.53337
523.00,43.30431
524.00,43.20125
525.00,42.96454
526.00,42.82112
527.00,42.71726
528.00,42.55701
529.00,42.49514
530.00,42.42927
531.00,42.40841
532.00,42.39570
533.00,42.49063
534.00,42.61453
535.00,42.75461
536.00,42.94124
537.00,43.18854
538.00,43.37499
539.00,43.56013
540.00,43.77911
541.00,44.00616
542.00,44.20669
543.00,44.35251
544.00,44.51057
545.00,44.67787
546.00,44.74629
547.00,44.78336
548.00,44.81758
549.00,44.84532
550.00,44.76598
551.00,44.63415
552.00,44.63452
553.00,44.47108
554.00,44.30659
555.00,44.13108
556.00,43.98151
557.00,43.71724
558.00,43.60557
559.00,43.41042
560.00,43.27010
561.00,43.08947
562.00,43.01822
563.00,42.89142
564.00,42.85226
565.00,42.73988
566.00,42.73661
567.00,42.81346
568.00,42.82606
569.00,42.85851
570.00,43.09828
571.00,43.17588
572.00,43.30666
573.00,43.55328
574.00,43.75851
575.00,44.01046
576.00,44.18216
577.00,44.52061
578.00,44.54163
579.00,44.77632
580.00,45.02896
581.00,45.19037
582.00,45.29265
583.00,45.37641
584.00,45.44694
585.00,45.57246
586.00,45.54151
587.00,45.58365
588.00,45.56896
589.00,45.54125
590.00,45.30488
591.00,45.24176
592.00,45.08104
593.00,45.02598
594.00,44.84874
595.00,44.67480
596.00,44.57482
597.00,44.35521
598.00,44.20877
599.00,44.03019
600.00,43.96468
601.00,43.77222
602.00,43.74325
603.00,43.69675
604.00,43.67172
605.00,43.64479
606.00,43.68379
607.00,43.65793
608.00,43.69124
609.00,43.79156
610.00,43.85256
611.00,44.06143
612.00,44.11495
613.00,44.34572
614.00,44.51174
615.00,44.68707
616.00,44.85871
617.00,45.00881
618.00,45.21362
619.00,45.45293
620.00,45.67760
621.00,45.88573
622.00,45.99671
623.00,46.21226
624.00,46.35278
625.00,46.50367
626.00,46.51588
627.00,46.67110
628.00,46.77357
629.00,46.78284
630.00,46.78019
631.00,46.89844
632.00,46.81561
633.00,46.75088
634.00,46.66302
635.00,46.61188
636.00,46.48293
637.00,46.35965
638.00,46.28257
639.00,46.15044
640.00,46.04935
641.00,45.92013
642.00,45.77240
643.00,45.65720
644.00,45.54096
645.00,45.49391
646.00,45.46283
647.00,45.36148
648.00,45.35532
649.00,45.32580
650.00,45.32475
651.00,45.21583
652.00,45.34601
653.00,45.32851
654.00,45.41223
655.00,45.52953
656.00,45.55732
657.00,45.69165
658.00,45.88901
659.00,46.12834
660.00,46.26305
661.00,46.43636
662.00,46.67493
663.00,46.88554
664.00,47.26490
665.00,47.46388
666.00,47.69817
667.00,48.04861
668.00,48.25425
669.00,48.56676
670.00,48.80092
671.00,49.02202
672.00,49.29019
673.00,49.65182
674.00,49.76677
675.00,49.98823
676.00,50.25761
677.00,50.52904
678.00,50.65633
679.00,50.94169
680.00,50.98330
681.00,51.11946
682.00,51.39838
683.00,51.40908
684.00,51.65741
685.00,51.76415
686.00,51.84206
687.00,51.99875
688.00,51.86698
689.00,51.95874
690.00,52.05877
691.00,52.06616
692.00,52.04567
693.00,52.20859
694.00,52.13486
695.00,52.18744
696.00,52.30196
697.00,52.26837
698.00,52.26677
699.00,52.38951
700.00,52.35024
701.00,52.38227
702.00,52.45804
703.00,52.64117
704.00,52.69535
705.00,52.91682
706.00,53.06705
707.00,53.21273
708.00,53.26897
709.00,53.41923
710.00,53.53218
711.00,53.79847
712.00,53.82003
713.00,54.09387
714.00,54.39321
715.00,54.46998
716.00,54.79749
717.00,55.09225
718.00,55.24176
719.00,55.52660
720.00,55.89693
721.00,55.88599
722.00,56.33602
723.00,56.63916
724.00,56.94028
725.00,57.15305
726.00,57.27053
727.00,57.51939
728.00,57.85187
729.00,57.91646
730.00,58.08970
731.00,58.47816
732.00,58.70529
733.00,58.82491
734.00,58.91907
735.00,59.27448
736.00,59.37830
737.00,59.12359
738.00,59.34069
739.00,59.40157
740.00,59.48673
741.00,59.39828
742.00,59.48005
743.00,59.27055
744.00,59.34973
745.00,59.25029
746.00,59.13682
747.00,59.21876
748.00,59.22993
749.00,59.15352
750.00,59.22540
751.00,58.83921
752.00,58.58366
753.00,58.52832
754.00,58.56107
755.00,58.30351
756.00,58.23930
757.00,58.12390
758.00,57.68114
759.00,57.96643
760.00,57.69892
761.00,57.24830
762.00,57.53170
763.00,57.26458
764.00,57.59181
765.00,57.10944
766.00,57.19562
767.00,57.32208
768.00,56.76737
769.00,56.81691
770.00,56.80038
771.00,56.90139
772.00,56.87340
773.00,57.11594
774.00,57.07178
775.00,57.07571
776.00,57.17738
777.00,56.94575
778.00,57.23960
779.00,57.57880
780.00,57.26404
781.00,57.87559
782.00,57.77657
783.00,58.04361
784.00,57.80215
785.00,58.24306
786.00,58.28683
787.00,58.62002
788.00,58.26497
789.00,58.78557
790.00,58.99123
791.00,58.84017
792.00,59.35985
793.00,59.51601
794.00,59.68993
795.00,59.91758
796.00,59.92495
797.00,60.29587
798.00,60.45188
799.00,60.43667
800.00,60.66793
