"1345TestBack - RawData"
"Wavelength nm.","T%"
200.00,0.40839
201.00,0.38925
202.00,0.31651
203.00,0.50589
204.00,0.41819
205.00,0.55521
206.00,0.37195
207.00,0.35086
208.00,0.39475
209.00,0.42842
210.00,0.55011
211.00,0.58714
212.00,0.62764
213.00,0.55484
214.00,0.50903
215.00,0.56368
216.00,0.56395
217.00,0.59209
218.00,0.63979
219.00,0.68758
220.00,0.59840
221.00,0.63243
222.00,0.72371
223.00,0.73519
224.00,0.98079
225.00,1.16446
226.00,1.58579
227.00,2.03252
228.00,2.96225
229.00,4.03798
230.00,5.80348
231.00,7.74973
232.00,10.37763
233.00,13.28943
234.00,17.13441
235.00,20.91406
236.00,25.72451
237.00,31.22013
238.00,35.19002
239.00,41.40992
240.00,44.13367
241.00,47.75750
242.00,50.88347
243.00,53.01327
244.00,55.97767
245.00,54.87860
246.00,55.00082
247.00,56.54357
248.00,58.45640
249.00,57.92726
250.00,59.74203
251.00,60.83831
252.00,61.32163
253.00,63.33389
254.00,63.95305
255.00,65.26893
256.00,66.52054
257.00,67.04305
258.00,68.40934
259.00,69.09935
260.00,69.38413
261.00,70.03855
262.00,70.11344
263.00,71.39722
264.00,71.79976
265.00,70.79293
266.00,69.41468
267.00,71.38790
268.00,68.78762
269.00,69.85008
270.00,69.73123
271.00,68.22028
272.00,67.05846
273.00,67.72248
274.00,67.23888
275.00,66.52709
276.00,67.25453
277.00,66.28267
278.00,66.24075
279.00,66.25884
280.00,68.31091
281.00,67.66241
282.00,67.33206
283.00,67.83608
284.00,69.00502
285.00,68.98355
286.00,70.84524
287.00,70.33625
288.00,70.13310
289.00,71.62554
290.00,71.53018
291.00,72.62964
292.00,74.30305
293.00,74.06421
294.00,74.74226
295.00,74.97295
296.00,74.99826
297.00,75.64277
298.00,76.36057
299.00,75.05007
300.00,77.21080
301.00,76.20831
302.00,75.38792
303.00,76.16527
304.00,75.19857
305.00,75.62693
306.00,74.50508
307.00,77.31116
308.00,76.05248
309.00,75.95068
310.00,75.38607
311.00,76.81782
312.00,75.31145
313.00,76.31507
314.00,75.24690
315.00,73.76807
316.00,73.61090
317.00,73.41494
318.00,74.84640
319.00,73.28436
320.00,72.61056
321.00,73.67020
322.00,74.73654
323.00,73.95524
324.00,73.79496
325.00,70.30714
326.00,71.74152
327.00,71.64920
328.00,71.00534
329.00,72.31911
330.00,71.60103
331.00,72.07339
332.00,72.10017
333.00,71.87366
334.00,72.08273
335.00,73.18590
336.00,72.49213
337.00,72.74117
338.00,74.37782
339.00,73.13370
340.00,73.63981
341.00,74.36664
342.00,74.18166
343.00,76.15877
344.00,75.60856
345.00,75.11907
346.00,74.93104
347.00,76.59759
348.00,76.72194
349.00,76.81238
350.00,77.53229
351.00,76.61617
352.00,77.98268
353.00,77.84746
354.00,78.71111
355.00,78.90975
356.00,78.76248
357.00,78.38781
358.00,78.94457
359.00,80.17009
360.00,79.49581
361.00,79.15894
362.00,78.80412
363.00,79.61633
364.00,79.07258
365.00,78.60363
366.00,78.28081
367.00,79.23413
368.00,79.28398
369.00,79.06703
370.00,79.73873
371.00,79.74275
372.00,80.04537
373.00,78.89311
374.00,78.77886
375.00,78.11064
376.00,78.25595
377.00,78.74693
378.00,78.32128
379.00,77.68906
380.00,77.88979
381.00,77.37633
382.00,77.83958
383.00,77.61871
384.00,76.92757
385.00,76.57977
386.00,76.70491
387.00,76.79722
388.00,75.75194
389.00,75.86882
390.00,75.94410
391.00,75.31112
392.00,74.82683
393.00,75.23015
394.00,75.58947
395.00,74.84417
396.00,74.63394
397.00,74.95485
398.00,74.69731
399.00,74.93240
400.00,74.49894
401.00,74.60670
402.00,74.05975
403.00,74.48456
404.00,74.38810
405.00,73.74322
406.00,74.14247
407.00,74.19768
408.00,74.22031
409.00,74.35836
410.00,74.13006
411.00,74.42630
412.00,74.44910
413.00,74.31419
414.00,74.95338
415.00,74.54288
416.00,74.61894
417.00,74.90404
418.00,74.98475
419.00,75.06563
420.00,75.62588
421.00,75.47423
422.00,75.25127
423.00,75.69584
424.00,75.80961
425.00,76.00853
426.00,76.60680
427.00,76.33408
428.00,76.52338
429.00,76.82209
430.00,77.29275
431.00,77.19696
432.00,77.19383
433.00,77.67735
434.00,77.45216
435.00,77.60201
436.00,78.04527
437.00,78.12713
438.00,78.20712
439.00,78.57848
440.00,78.70567
441.00,78.54908
442.00,79.19229
443.00,79.37571
444.00,79.11705
445.00,79.44030
446.00,79.45520
447.00,79.69921
448.00,79.85042
449.00,79.99226
450.00,80.01863
451.00,80.36969
452.00,80.09326
453.00,80.59000
454.00,80.49354
455.00,80.76369
456.00,80.98509
457.00,80.69695
458.00,81.06459
459.00,81.39555
460.00,81.07262
461.00,81.31253
462.00,81.17670
463.00,81.60453
464.00,81.78095
465.00,81.64583
466.00,81.60647
467.00,82.15748
468.00,81.75923
469.00,81.86033
470.00,81.70032
471.00,82.12941
472.00,81.91632
473.00,82.04386
474.00,81.91984
475.00,82.34616
476.00,81.95646
477.00,82.08777
478.00,81.96625
479.00,81.96276
480.00,81.78356
481.00,81.95759
482.00,81.92875
483.00,81.67610
484.00,81.70998
485.00,81.56139
486.00,81.49434
487.00,81.41987
488.00,81.52109
489.00,81.63490
490.00,81.73147
491.00,81.25992
492.00,81.26739
493.00,81.26301
494.00,80.99256
495.00,80.85455
496.00,80.78889
497.00,81.16599
498.00,80.68452
499.00,80.50697
500.00,80.28060
501.00,80.58809
502.00,80.10012
503.00,80.16570
504.00,79.97227
505.00,79.66986
506.00,80.10017
507.00,79.85971
508.00,79.78157
509.00,79.63699
510.00,80.12159
511.00,79.50894
512.00,79.06933
513.00,79.42222
514.00,79.17458
515.00,78.89705
516.00,79.18255
517.00,78.88075
518.00,78.42634
519.00,78.71298
520.00,78.33433
521.00,78.65065
522.00,78.67186
523.00,78.41125
524.00,78.15361
525.00,78.39860
526.00,78.20528
527.00,77.88706
528.00,77.99797
529.00,77.92497
530.00,77.87254
531.00,77.56117
532.00,77.61464
533.00,77.74005
534.00,77.13294
535.00,77.37160
536.00,77.57390
537.00,77.04690
538.00,76.83841
539.00,76.45619
540.00,77.13694
541.00,76.77761
542.00,76.85011
543.00,76.63134
544.00,76.64536
545.00,76.40684
546.00,76.59196
547.00,77.05590
548.00,76.96506
549.00,76.24446
550.00,76.40485
551.00,76.19318
552.00,76.64573
553.00,76.23012
554.00,76.44722
555.00,76.25299
556.00,76.28771
557.00,76.15402
558.00,76.59091
559.00,76.38533
560.00,76.13598
561.00,76.32744
562.00,76.05602
563.00,76.32099
564.00,76.22710
565.00,76.31809
566.00,76.53781
567.00,76.19175
568.00,76.57362
569.00,76.28250
570.00,76.54079
571.00,76.47996
572.00,76.25606
573.00,76.31127
574.00,76.61187
575.00,76.24825
576.00,76.30895
577.00,76.03401
578.00,76.40030
579.00,76.29009
580.00,76.35866
581.00,76.25386
582.00,76.77258
583.00,76.71888
584.00,76.38643
585.00,76.67037
586.00,76.55123
587.00,76.70086
588.00,76.70857
589.00,76.63578
590.00,76.82164
591.00,77.12902
592.00,76.70786
593.00,76.75582
594.00,76.76342
595.00,77.04852
596.00,77.09902
597.00,77.27643
598.00,77.16150
599.00,77.38266
600.00,77.25639
601.00,77.20116
602.00,77.22787
603.00,77.64941
604.00,77.74724
605.00,77.82509
606.00,77.95085
607.00,78.07792
608.00,77.97323
609.00,78.29364
610.00,77.77647
611.00,77.82599
612.00,78.01940
613.00,78.08538
614.00,77.99308
615.00,78.49444
616.00,78.21005
617.00,78.52282
618.00,78.79432
619.00,78.77419
620.00,78.68456
621.00,78.59741
622.00,79.08803
623.00,78.84048
624.00,79.02400
625.00,79.07324
626.00,78.97398
627.00,79.78559
628.00,79.08330
629.00,79.60243
630.00,79.55292
631.00,79.64486
632.00,79.91955
633.00,80.24914
634.00,79.86384
635.00,80.28843
636.00,80.07156
637.00,80.03963
638.00,80.24673
639.00,80.51913
640.00,80.36064
641.00,80.36515
642.00,80.72605
643.00,81.00232
644.00,80.93033
645.00,80.96915
646.00,80.59759
647.00,81.10573
648.00,81.24528
649.00,81.36229
650.00,81.19911
651.00,81.50312
652.00,81.41794
653.00,81.52618
654.00,81.45698
655.00,81.06399
656.00,81.67059
657.00,81.72266
658.00,81.78806
659.00,81.74512
660.00,81.82319
661.00,82.42444
662.00,82.14052
663.00,81.74206
664.00,82.42829
665.00,82.71616
666.00,82.44183
667.00,82.07238
668.00,82.28858
669.00,82.60529
670.00,82.14161
671.00,82.73851
672.00,82.94637
673.00,82.47603
674.00,82.59012
675.00,82.82594
676.00,82.69680
677.00,83.63616
678.00,83.13615
679.00,83.21469
680.00,82.93216
681.00,83.13559
682.00,83.39534
683.00,83.43986
684.00,83.83574
685.00,83.37684
686.00,83.71114
687.00,83.46704
688.00,83.63838
689.00,83.77490
690.00,84.01116
691.00,83.68809
692.00,83.76536
693.00,83.67037
694.00,84.18733
695.00,83.98621
696.00,84.12513
697.00,84.11213
698.00,84.46413
699.00,84.58902
700.00,84.44717
701.00,84.55603
702.00,83.82642
703.00,84.06669
704.00,84.43672
705.00,84.41511
706.00,85.40279
707.00,84.67711
708.00,84.96480
709.00,84.86637
710.00,84.80954
711.00,84.84461
712.00,84.68363
713.00,84.57797
714.00,84.75531
715.00,84.41575
716.00,84.31858
717.00,84.78390
718.00,84.54236
719.00,85.08608
720.00,85.02743
721.00,84.81097
722.00,84.82578
723.00,84.62764
724.00,84.72563
725.00,84.59761
726.00,84.62594
727.00,84.71445
728.00,84.85900
729.00,84.98770
730.00,84.57818
731.00,84.65367
732.00,84.64920
733.00,84.60037
734.00,84.72947
735.00,85.03833
736.00,84.96089
737.00,84.10847
738.00,84.60835
739.00,84.61044
740.00,84.50533
741.00,84.80887
742.00,84.68649
743.00,85.07977
744.00,83.96969
745.00,84.30792
746.00,84.23029
747.00,84.42903
748.00,84.31647
749.00,84.11460
750.00,85.00450
751.00,85.00517
752.00,83.98412
753.00,85.16480
754.00,83.95779
755.00,84.34952
756.00,84.60938
757.00,84.36428
758.00,84.78822
759.00,84.01348
760.00,84.21993
761.00,84.09733
762.00,83.76261
763.00,84.47641
764.00,84.16595
765.00,84.03385
766.00,83.79037
767.00,83.96240
768.00,83.83099
769.00,84.30840
770.00,84.03235
771.00,84.14710
772.00,84.48669
773.00,83.85875
774.00,84.22030
775.00,84.32250
776.00,83.92875
777.00,83.89321
778.00,83.83797
779.00,83.94439
780.00,84.09752
781.00,83.80710
782.00,83.89364
783.00,83.64903
784.00,83.20442
785.00,82.94098
786.00,83.78719
787.00,83.39561
788.00,83.61853
789.00,83.89891
790.00,83.19121
791.00,84.48388
792.00,83.50992
793.00,82.61026
794.00,83.05119
795.00,82.94604
796.00,83.15274
797.00,82.71215
798.00,83.20234
799.00,82.76247
800.00,83.77008
