"Resin Sapphire Slow - RawData"
"Wavelength nm.","T%"
200.00,46.00820
200.20,46.15905
200.40,46.24912
200.60,46.64818
200.80,46.99385
201.00,47.08219
201.20,46.79650
201.40,46.97094
201.60,47.06873
201.80,47.08230
202.00,47.13989
202.20,47.59161
202.40,47.19090
202.60,47.36997
202.80,47.66442
203.00,47.66483
203.20,47.54076
203.40,47.91583
203.60,47.51303
203.80,47.67332
204.00,48.02877
204.20,48.17850
204.40,48.41526
204.60,48.46748
204.80,48.55490
205.00,48.67936
205.20,48.57491
205.40,48.85239
205.60,49.01487
205.80,49.10908
206.00,49.13316
206.20,49.44634
206.40,49.41971
206.60,49.80556
206.80,49.64001
207.00,49.79932
207.20,49.95731
207.40,49.74392
207.60,49.62553
207.80,49.88789
208.00,49.96210
208.20,49.95147
208.40,50.19648
208.60,50.10772
208.80,49.65079
209.00,49.48391
209.20,49.56794
209.40,49.67781
209.60,49.65011
209.80,50.17273
210.00,50.29607
210.20,50.34865
210.40,50.28522
210.60,50.44760
210.80,50.39496
211.00,50.69774
211.20,50.85937
211.40,50.78599
211.60,50.86733
211.80,50.84045
212.00,50.63967
212.20,50.56250
212.40,50.68251
212.60,50.74540
212.80,50.85227
213.00,50.94793
213.20,50.84233
213.40,50.96164
213.60,51.04617
213.80,51.06112
214.00,50.97784
214.20,51.12092
214.40,51.03676
214.60,51.11216
214.80,51.08761
215.00,51.06426
215.20,51.09046
215.40,51.02627
215.60,50.98420
215.80,51.04420
216.00,51.29120
216.20,51.26377
216.40,51.51054
216.60,51.40663
216.80,51.35148
217.00,51.05121
217.20,50.99032
217.40,50.71375
217.60,50.73755
217.80,50.67517
218.00,50.85213
218.20,50.76020
218.40,50.95194
218.60,51.07966
218.80,51.20329
219.00,51.40779
219.20,51.60043
219.40,51.64829
219.60,51.39997
219.80,51.39291
220.00,51.31872
220.20,51.30383
220.40,51.27636
220.60,51.41141
220.80,51.48357
221.00,51.32048
221.20,51.29176
221.40,51.34240
221.60,51.39332
221.80,51.38266
222.00,51.47355
222.20,51.60776
222.40,51.54531
222.60,51.57286
222.80,51.54799
223.00,51.66371
223.20,51.65336
223.40,51.65551
223.60,51.60728
223.80,51.58095
224.00,51.67398
224.20,51.72681
224.40,51.77787
224.60,51.93263
224.80,52.08625
225.00,51.93574
225.20,51.84131
225.40,51.83189
225.60,51.80147
225.80,51.86714
226.00,51.97770
226.20,51.99428
226.40,52.16639
226.60,52.05332
226.80,52.04918
227.00,52.04668
227.20,52.18260
227.40,52.11312
227.60,52.34136
227.80,52.40327
228.00,52.49290
228.20,52.41894
228.40,52.45517
228.60,52.29971
228.80,52.37715
229.00,52.34633
229.20,52.41953
229.40,52.41188
229.60,52.55683
229.80,52.56035
230.00,52.55199
230.20,52.64587
230.40,52.86528
230.60,52.96503
230.80,52.99092
231.00,53.12829
231.20,53.31948
231.40,53.35238
231.60,53.40486
231.80,53.49182
232.00,53.60035
232.20,53.51612
232.40,53.53627
232.60,53.51007
232.80,53.43027
233.00,53.36990
233.20,53.47259
233.40,53.44431
233.60,53.52048
233.80,53.59100
234.00,53.71172
234.20,53.78149
234.40,53.95713
234.60,53.97505
234.80,54.12117
235.00,54.11125
235.20,54.21563
235.40,54.14170
235.60,54.30759
235.80,54.26130
236.00,54.39944
236.20,54.39619
236.40,54.47877
236.60,54.50746
236.80,54.69277
237.00,54.69353
237.20,54.77722
237.40,54.86623
237.60,54.86004
237.80,54.88830
238.00,54.92373
238.20,54.87976
238.40,54.93968
238.60,55.02515
238.80,54.99589
239.00,55.02113
239.20,55.09553
239.40,55.06290
239.60,55.12737
239.80,55.24325
240.00,55.29574
240.20,55.20406
240.40,55.32781
240.60,55.32378
240.80,55.38913
241.00,55.49929
241.20,55.69457
241.40,55.73623
241.60,55.72655
241.80,55.71038
242.00,55.67855
242.20,55.78485
242.40,55.81111
242.60,55.89989
242.80,56.04219
243.00,56.14496
243.20,56.11869
243.40,56.12665
243.60,56.19385
243.80,56.14193
244.00,56.18152
244.20,56.23733
244.40,56.31994
244.60,56.40820
244.80,56.53988
245.00,56.59859
245.20,56.66200
245.40,56.74591
245.60,56.75570
245.80,56.72059
246.00,56.78845
246.20,56.82163
246.40,56.81024
246.60,56.92440
246.80,56.99791
247.00,57.03738
247.20,57.10113
247.40,57.19966
247.60,57.12593
247.80,57.11839
248.00,57.12295
248.20,57.11022
248.40,57.13869
248.60,57.19481
248.80,57.16413
249.00,57.22582
249.20,57.30931
249.40,57.29988
249.60,57.29963
249.80,57.42652
250.00,57.46553
250.20,57.40831
250.40,57.45627
250.60,57.54929
250.80,57.58556
251.00,57.57589
251.20,57.68185
251.40,57.70132
251.60,57.72901
251.80,57.73891
252.00,57.76137
252.20,57.75740
252.40,57.84168
252.60,57.92972
252.80,57.96459
253.00,57.99483
253.20,58.00016
253.40,58.00024
253.60,57.97250
253.80,58.05970
254.00,58.09606
254.20,58.17305
254.40,58.18044
254.60,58.17222
254.80,58.11666
255.00,58.18862
255.20,58.26038
255.40,58.29518
255.60,58.37051
255.80,58.46533
256.00,58.40241
256.20,58.33623
256.40,58.37895
256.60,58.34587
256.80,58.22620
257.00,58.26448
257.20,58.27272
257.40,58.28483
257.60,58.23691
257.80,58.32520
258.00,58.33070
258.20,58.33762
258.40,58.29269
258.60,58.33817
258.80,58.31164
259.00,58.35174
259.20,58.40121
259.40,58.43237
259.60,58.42841
259.80,58.48061
260.00,58.56544
260.20,58.49566
260.40,58.49935
260.60,58.58566
260.80,58.60021
261.00,58.58576
261.20,58.70714
261.40,58.80032
261.60,58.77363
261.80,58.78712
262.00,58.76377
262.20,58.72045
262.40,58.67769
262.60,58.75535
262.80,58.68690
263.00,58.70484
263.20,58.71314
263.40,58.70783
263.60,58.70061
263.80,58.85005
264.00,58.93872
264.20,58.88833
264.40,58.93868
264.60,58.87720
264.80,58.83706
265.00,58.74280
265.20,58.80866
265.40,58.77405
265.60,58.82854
265.80,58.86348
266.00,58.86896
266.20,58.88463
266.40,58.92427
266.60,58.95438
266.80,58.93688
267.00,58.93962
267.20,58.95739
267.40,58.93576
267.60,58.97915
267.80,58.95385
268.00,59.09623
268.20,59.11170
268.40,59.15514
268.60,59.09342
268.80,59.12252
269.00,59.05783
269.20,59.02033
269.40,58.99268
269.60,59.08760
269.80,59.08425
270.00,59.03347
270.20,59.10585
270.40,59.12512
270.60,59.05439
270.80,59.09694
271.00,59.15776
271.20,59.19921
271.40,59.25863
271.60,59.28386
271.80,59.21300
272.00,59.18834
272.20,59.19545
272.40,59.18050
272.60,59.17612
272.80,59.18058
273.00,59.17869
273.20,59.14734
273.40,59.15791
273.60,59.15452
273.80,59.17246
274.00,59.17020
274.20,59.21606
274.40,59.24255
274.60,59.27068
274.80,59.28904
275.00,59.29112
275.20,59.23998
275.40,59.22725
275.60,59.26993
275.80,59.29801
276.00,59.38045
276.20,59.36189
276.40,59.41157
276.60,59.39674
276.80,59.39680
277.00,59.34751
277.20,59.44264
277.40,59.39926
277.60,59.41949
277.80,59.52699
278.00,59.55867
278.20,59.49104
278.40,59.49456
278.60,59.50857
278.80,59.48974
279.00,59.51781
279.20,59.55204
279.40,59.55788
279.60,59.56352
279.80,59.50053
280.00,59.41991
280.20,59.45565
280.40,59.50723
280.60,59.52311
280.80,59.56938
281.00,59.69616
281.20,59.69111
281.40,59.67511
281.60,59.65808
281.80,59.61410
282.00,59.59193
282.20,59.59263
282.40,59.63134
282.60,59.62176
282.80,59.65618
283.00,59.64686
283.20,59.70634
283.40,59.68882
283.60,59.81268
283.80,59.93193
284.00,59.97573
284.20,59.99613
284.40,60.01175
284.60,59.96342
284.80,59.96574
285.00,59.97562
285.20,60.03643
285.40,60.02593
285.60,60.09863
285.80,60.07413
286.00,60.16400
286.20,60.14292
286.40,60.23650
286.60,60.26228
286.80,60.31554
287.00,60.30892
287.20,60.39669
287.40,60.40565
287.60,60.40981
287.80,60.41759
288.00,60.43487
288.20,60.43242
288.40,60.47105
288.60,60.54420
288.80,60.62649
289.00,60.71348
289.20,60.73675
289.40,60.81586
289.60,60.81775
289.80,60.82571
290.00,60.79456
290.20,60.80413
290.40,60.87835
290.60,60.90982
290.80,60.95034
291.00,60.97738
291.20,61.00318
291.40,60.91735
291.60,60.89486
291.80,60.98664
292.00,61.06286
292.20,61.03218
292.40,61.10901
292.60,61.15478
292.80,61.10076
293.00,61.07523
293.20,61.13369
293.40,61.09943
293.60,61.09876
293.80,61.05034
294.00,61.09235
294.20,61.14901
294.40,61.19303
294.60,61.18613
294.80,61.22032
295.00,61.25989
295.20,61.28523
295.40,61.33410
295.60,61.36982
295.80,61.42991
296.00,61.49413
296.20,61.52534
296.40,61.61806
296.60,61.67613
296.80,61.69589
297.00,61.69877
297.20,61.71276
297.40,61.64475
297.60,61.67321
297.80,61.69884
298.00,61.63661
298.20,61.63507
298.40,61.64271
298.60,61.64845
298.80,61.74986
299.00,61.82826
299.20,61.89507
299.40,61.91390
299.60,61.87498
299.80,61.84047
300.00,61.87514
300.20,61.82729
300.40,61.78540
300.60,61.84115
300.80,61.87327
301.00,61.89486
301.20,61.92780
301.40,62.03547
301.60,62.14309
301.80,62.18030
302.00,62.12161
302.20,62.15119
302.40,62.18319
302.60,62.17256
302.80,62.17376
303.00,62.30619
303.20,62.34758
303.40,62.32494
303.60,62.36483
303.80,62.39485
304.00,62.31457
304.20,62.31973
304.40,62.37373
304.60,62.44811
304.80,62.45223
305.00,62.47303
305.20,62.51683
305.40,62.52853
305.60,62.51138
305.80,62.52549
306.00,62.51091
306.20,62.55553
306.40,62.50605
306.60,62.55494
306.80,62.51922
307.00,62.61870
307.20,62.62416
307.40,62.68846
307.60,62.68868
307.80,62.77643
308.00,62.81689
308.20,62.78770
308.40,62.88226
308.60,62.87840
308.80,62.86423
309.00,62.84245
309.20,62.86202
309.40,62.80875
309.60,62.88198
309.80,62.91134
310.00,62.96731
310.20,63.03649
310.40,63.17886
310.60,63.11616
310.80,63.09608
311.00,63.11401
311.20,63.11675
311.40,63.05318
311.60,63.10053
311.80,63.13481
312.00,63.11967
312.20,63.07773
312.40,63.10143
312.60,63.15184
312.80,63.19354
313.00,63.17370
313.20,63.24182
313.40,63.24366
313.60,63.10821
313.80,63.19320
314.00,63.28405
314.20,63.41814
314.40,63.51739
314.60,63.61320
314.80,63.56594
315.00,63.54017
315.20,63.42334
315.40,63.39694
315.60,63.40721
315.80,63.42146
316.00,63.39647
316.20,63.44435
316.40,63.50913
316.60,63.62319
316.80,63.69515
317.00,63.81984
317.20,63.88966
317.40,63.79600
317.60,63.75115
317.80,63.76973
318.00,63.70338
318.20,63.58656
318.40,63.69308
318.60,63.71978
318.80,63.69553
319.00,63.75005
319.20,63.85763
319.40,63.85462
319.60,63.91925
319.80,63.93595
320.00,63.84174
320.20,63.78719
320.40,63.87011
320.60,63.81297
320.80,63.91618
321.00,64.07588
321.20,64.20252
321.40,64.12451
321.60,64.08858
321.80,63.96797
322.00,63.83833
322.20,63.82248
322.40,63.81673
322.60,63.88343
322.80,64.00148
323.00,64.10533
323.20,64.13839
323.40,64.19263
323.60,64.19766
323.80,64.21552
324.00,64.23882
324.20,64.16283
324.40,64.11338
324.60,64.18162
324.80,64.14232
325.00,64.20359
325.20,64.33730
325.40,64.40781
325.60,64.39372
325.80,64.40686
326.00,64.33566
326.20,64.27819
326.40,64.24266
326.60,64.30579
326.80,64.30395
327.00,64.38185
327.20,64.36414
327.40,64.42280
327.60,64.35705
327.80,64.41847
328.00,64.36526
328.20,64.41454
328.40,64.40583
328.60,64.51496
328.80,64.54296
329.00,64.61865
329.20,64.58902
329.40,64.61154
329.60,64.61196
329.80,64.65297
330.00,64.64282
330.20,64.72836
330.40,64.65561
330.60,64.60441
330.80,64.62321
331.00,64.68151
331.20,64.72252
331.40,64.85753
331.60,64.89641
331.80,64.90831
332.00,64.84457
332.20,64.74060
332.40,64.71629
332.60,64.70850
332.80,64.68372
333.00,64.68672
333.20,64.70689
333.40,64.78737
333.60,64.82260
333.80,64.87252
334.00,64.98368
334.20,65.11070
334.40,65.07876
334.60,65.10246
334.80,65.05489
335.00,65.08080
335.20,65.05550
335.40,64.99522
335.60,65.00835
335.80,65.09513
336.00,65.02137
336.20,64.97234
336.40,65.06554
336.60,65.03485
336.80,64.91939
337.00,64.90746
337.20,65.00632
337.40,64.96226
337.60,65.00761
337.80,65.11229
338.00,65.24928
338.20,65.25157
338.40,65.30668
338.60,65.31599
338.80,65.29781
339.00,65.20600
339.20,65.31069
339.40,65.32435
339.60,65.27340
339.80,65.28444
340.00,65.35270
340.20,65.34131
340.40,65.32857
340.60,65.42023
340.80,65.40570
341.00,65.43574
341.20,65.36980
341.40,65.42271
341.60,65.37004
341.80,65.47230
342.00,65.53581
342.20,65.47154
342.40,65.45911
342.60,65.49739
342.80,65.41424
343.00,65.41963
343.20,65.44710
343.40,65.47074
343.60,65.50381
343.80,65.54214
344.00,65.43049
344.20,65.49864
344.40,65.48620
344.60,65.47539
344.80,65.51654
345.00,65.53885
345.20,65.51049
345.40,65.57984
345.60,65.63133
345.80,65.64782
346.00,65.73596
346.20,65.75268
346.40,65.71053
346.60,65.66791
346.80,65.64841
347.00,65.62573
347.20,65.63891
347.40,65.67736
347.60,65.69826
347.80,65.59208
348.00,65.55809
348.20,65.61587
348.40,65.59541
348.60,65.61636
348.80,65.72349
349.00,65.74814
349.20,65.71451
349.40,65.78644
349.60,65.81187
349.80,65.90112
350.00,65.90303
350.20,65.87828
350.40,65.82350
350.60,65.80028
350.80,65.75566
351.00,65.77721
351.20,65.85388
351.40,65.84263
351.60,65.95093
351.80,65.94856
352.00,65.97285
352.20,65.91582
352.40,65.88224
352.60,65.78426
352.80,65.74043
353.00,65.77993
353.20,65.82766
353.40,65.84157
353.60,65.93239
353.80,65.95996
354.00,65.95979
354.20,65.95072
354.40,66.00500
354.60,65.93966
354.80,65.99870
355.00,65.92931
355.20,65.87560
355.40,65.86083
355.60,65.87932
355.80,65.80156
356.00,65.85872
356.20,65.92970
356.40,65.92937
356.60,65.92629
356.80,65.99473
357.00,65.99135
357.20,65.98389
357.40,66.03280
357.60,66.05721
357.80,66.03386
358.00,66.07758
358.20,66.05326
358.40,66.00069
358.60,65.96155
358.80,65.93834
359.00,65.93058
359.20,65.90235
359.40,65.94304
359.60,65.92410
359.80,65.95525
360.00,65.90141
360.20,65.96735
360.40,65.95647
360.60,66.07257
360.80,66.04739
361.00,66.08534
361.20,66.08052
361.40,66.07835
361.60,65.95895
361.80,66.00883
362.00,66.01838
362.20,66.02756
362.40,66.01880
362.60,66.13954
362.80,66.13597
363.00,66.09660
363.20,66.04985
363.40,66.02879
363.60,65.87683
363.80,65.90317
364.00,65.87812
364.20,65.92799
364.40,65.95050
364.60,66.07550
364.80,66.06143
365.00,66.11898
365.20,66.06898
365.40,66.08503
365.60,66.05044
365.80,65.95287
366.00,65.94293
366.20,66.07209
366.40,66.05816
366.60,66.07854
366.80,66.19442
367.00,66.25960
367.20,66.12368
367.40,66.16818
367.60,66.11931
367.80,66.08952
368.00,66.06010
368.20,66.17895
368.40,66.22488
368.60,66.22619
368.80,66.27794
369.00,66.25658
369.20,66.23093
369.40,66.16734
369.60,66.22803
369.80,66.19323
370.00,66.22979
370.20,66.12364
370.40,66.21580
370.60,66.22707
370.80,66.23361
371.00,66.18866
371.20,66.25683
371.40,66.20781
371.60,66.21562
371.80,66.15919
372.00,66.17649
372.20,66.18721
372.40,66.19075
372.60,66.19273
372.80,66.21544
373.00,66.22532
373.20,66.27690
373.40,66.35411
373.60,66.36465
373.80,66.38917
374.00,66.34453
374.20,66.33927
374.40,66.23747
374.60,66.20638
374.80,66.23333
375.00,66.33775
375.20,66.34614
375.40,66.36267
375.60,66.37527
375.80,66.35683
376.00,66.30345
376.20,66.27777
376.40,66.29633
376.60,66.31078
376.80,66.31018
377.00,66.33018
377.20,66.32047
377.40,66.30917
377.60,66.32358
377.80,66.34124
378.00,66.38027
378.20,66.43941
378.40,66.46203
378.60,66.42702
378.80,66.45744
379.00,66.39563
379.20,66.34706
379.40,66.33071
379.60,66.36458
379.80,66.34418
380.00,66.33937
380.20,66.36840
380.40,66.39053
380.60,66.38579
380.80,66.39728
381.00,66.44084
381.20,66.45318
381.40,66.46432
381.60,66.43737
381.80,66.45526
382.00,66.45021
382.20,66.41421
382.40,66.36431
382.60,66.36255
382.80,66.36553
383.00,66.40093
383.20,66.42559
383.40,66.45759
383.60,66.46602
383.80,66.43764
384.00,66.43038
384.20,66.39120
384.40,66.40557
384.60,66.44056
384.80,66.44868
385.00,66.44452
385.20,66.49339
385.40,66.49514
385.60,66.51831
385.80,66.49404
386.00,66.51712
386.20,66.53442
386.40,66.55928
386.60,66.55869
386.80,66.58742
387.00,66.55066
387.20,66.56600
387.40,66.52208
387.60,66.49804
387.80,66.48427
388.00,66.49601
388.20,66.48048
388.40,66.50642
388.60,66.49047
388.80,66.49007
389.00,66.50548
389.20,66.53194
389.40,66.54580
389.60,66.58718
389.80,66.62748
390.00,66.63307
390.20,66.66868
390.40,66.65971
390.60,66.64436
390.80,66.63009
391.00,66.61398
391.20,66.56759
391.40,66.59241
391.60,66.58500
391.80,66.61050
392.00,66.62126
392.20,66.60533
392.40,66.57718
392.60,66.60821
392.80,66.59749
393.00,66.65827
393.20,66.68028
393.40,66.71224
393.60,66.73140
393.80,66.76112
394.00,66.69930
394.20,66.72744
394.40,66.68822
394.60,66.64037
394.80,66.58071
395.00,66.55930
395.20,66.55110
395.40,66.59868
395.60,66.61391
395.80,66.64432
396.00,66.69437
396.20,66.69505
396.40,66.73217
396.60,66.76143
396.80,66.76258
397.00,66.71916
397.20,66.72633
397.40,66.70660
397.60,66.72528
397.80,66.75630
398.00,66.76023
398.20,66.77682
398.40,66.79718
398.60,66.76941
398.80,66.75853
399.00,66.82155
399.20,66.81960
399.40,66.81563
399.60,66.83676
399.80,66.84224
400.00,66.82666
400.20,66.80546
400.40,66.80781
400.60,66.82310
400.80,66.83606
401.00,66.88138
401.20,66.89028
401.40,66.89644
401.60,66.88799
401.80,66.89090
402.00,66.87191
402.20,66.88140
402.40,66.88022
402.60,66.93356
402.80,66.95357
403.00,66.94538
403.20,66.97334
403.40,66.96262
403.60,66.93773
403.80,66.95345
404.00,66.96443
404.20,66.95620
404.40,66.96689
404.60,66.96761
404.80,67.00283
405.00,67.01203
405.20,67.03289
405.40,67.06411
405.60,67.02374
405.80,66.97118
406.00,66.95338
406.20,66.94363
406.40,66.95499
406.60,67.02172
406.80,67.07045
407.00,67.09300
407.20,67.11808
407.40,67.09131
407.60,67.08827
407.80,67.06004
408.00,67.10823
408.20,67.09245
408.40,67.06856
408.60,67.08535
408.80,67.10237
409.00,67.10331
409.20,67.14080
409.40,67.18339
409.60,67.17479
409.80,67.17657
410.00,67.17206
410.20,67.12272
410.40,67.11200
410.60,67.13549
410.80,67.15205
411.00,67.14221
411.20,67.18168
411.40,67.20286
411.60,67.21205
411.80,67.24886
412.00,67.29141
412.20,67.30489
412.40,67.31778
412.60,67.32022
412.80,67.27548
413.00,67.23981
413.20,67.23421
413.40,67.22267
413.60,67.21889
413.80,67.23327
414.00,67.25746
414.20,67.23232
414.40,67.26703
414.60,67.27812
414.80,67.30955
415.00,67.29220
415.20,67.34806
415.40,67.38990
415.60,67.39207
415.80,67.42545
416.00,67.46860
416.20,67.44508
416.40,67.41527
416.60,67.45394
416.80,67.45589
417.00,67.46101
417.20,67.53255
417.40,67.54777
417.60,67.55416
417.80,67.54810
418.00,67.56760
418.20,67.59569
418.40,67.61458
418.60,67.63674
418.80,67.68083
419.00,67.70332
419.20,67.67846
419.40,67.70498
419.60,67.72513
419.80,67.72820
420.00,67.72120
420.20,67.75270
420.40,67.75587
420.60,67.75594
420.80,67.76387
421.00,67.81368
421.20,67.80540
421.40,67.80516
421.60,67.82940
421.80,67.83584
422.00,67.85079
422.20,67.87019
422.40,67.89355
422.60,67.90741
422.80,67.94382
423.00,67.94446
423.20,67.96013
423.40,68.00313
423.60,68.00480
423.80,68.02299
424.00,68.04079
424.20,68.08379
424.40,68.11878
424.60,68.13462
424.80,68.13283
425.00,68.16193
425.20,68.16882
425.40,68.15373
425.60,68.17598
425.80,68.18449
426.00,68.16618
426.20,68.16591
426.40,68.18412
426.60,68.18807
426.80,68.20774
427.00,68.23580
427.20,68.26820
427.40,68.26844
427.60,68.28462
427.80,68.33298
428.00,68.35451
428.20,68.34629
428.40,68.37431
428.60,68.39384
428.80,68.35524
429.00,68.35319
429.20,68.37029
429.40,68.35953
429.60,68.36430
429.80,68.38698
430.00,68.38553
430.20,68.38419
430.40,68.39223
430.60,68.40715
430.80,68.42992
431.00,68.42644
431.20,68.42929
431.40,68.45471
431.60,68.47332
431.80,68.47437
432.00,68.50079
432.20,68.51817
432.40,68.49334
432.60,68.44461
432.80,68.43941
433.00,68.44594
433.20,68.43153
433.40,68.45748
433.60,68.49825
433.80,68.51723
434.00,68.53467
434.20,68.56731
434.40,68.57556
434.60,68.59172
434.80,68.58395
435.00,68.58816
435.20,68.58879
435.40,68.59068
435.60,68.60197
435.80,68.57870
436.00,68.58877
436.20,68.58347
436.40,68.58589
436.60,68.57085
436.80,68.61310
437.00,68.59559
437.20,68.59068
437.40,68.58793
437.60,68.61122
437.80,68.61045
438.00,68.62248
438.20,68.63826
438.40,68.67805
438.60,68.65755
438.80,68.65146
439.00,68.65309
439.20,68.68678
439.40,68.68393
439.60,68.70242
439.80,68.70071
440.00,68.71147
440.20,68.69305
440.40,68.68873
440.60,68.73153
440.80,68.74442
441.00,68.74751
441.20,68.76389
441.40,68.76919
441.60,68.71498
441.80,68.72057
442.00,68.72523
442.20,68.73164
442.40,68.75612
442.60,68.76046
442.80,68.77074
443.00,68.77226
443.20,68.75358
443.40,68.73196
443.60,68.75074
443.80,68.73958
444.00,68.75673
444.20,68.78171
444.40,68.78611
444.60,68.74706
444.80,68.76471
445.00,68.74858
445.20,68.73317
445.40,68.74978
445.60,68.81267
445.80,68.78064
446.00,68.77002
446.20,68.76459
446.40,68.74095
446.60,68.73115
446.80,68.76091
447.00,68.79771
447.20,68.80896
447.40,68.82861
447.60,68.85524
447.80,68.85768
448.00,68.85957
448.20,68.89485
448.40,68.91390
448.60,68.90133
448.80,68.90743
449.00,68.89829
449.20,68.87115
449.40,68.84395
449.60,68.82694
449.80,68.80839
450.00,68.83259
450.20,68.84485
450.40,68.85144
450.60,68.85892
450.80,68.89139
451.00,68.88237
451.20,68.89784
451.40,68.89042
451.60,68.89384
451.80,68.90104
452.00,68.88319
452.20,68.86187
452.40,68.88753
452.60,68.88942
452.80,68.88659
453.00,68.88420
453.20,68.91316
453.40,68.90101
453.60,68.92433
453.80,68.92878
454.00,68.93830
454.20,68.88070
454.40,68.88683
454.60,68.86280
454.80,68.85353
455.00,68.86833
455.20,68.91414
455.40,68.91929
455.60,68.92282
455.80,68.93425
456.00,68.94091
456.20,68.92588
456.40,68.94014
456.60,68.97061
456.80,68.99153
457.00,68.97289
457.20,69.00018
457.40,68.98335
457.60,68.96419
457.80,68.93406
458.00,68.96812
458.20,68.99183
458.40,68.99924
458.60,69.00627
458.80,69.03317
459.00,69.02806
459.20,69.00959
459.40,69.02239
459.60,69.02535
459.80,69.03136
460.00,69.02400
460.20,69.01147
460.40,69.03242
460.60,69.03754
460.80,69.05740
461.00,69.05691
461.20,69.05043
461.40,69.01439
461.60,69.02096
461.80,69.01265
462.00,69.01459
462.20,69.02739
462.40,69.05086
462.60,69.03983
462.80,69.01575
463.00,69.02766
463.20,69.03731
463.40,69.04354
463.60,69.05006
463.80,69.08392
464.00,69.07310
464.20,69.08730
464.40,69.12062
464.60,69.12826
464.80,69.13213
465.00,69.15119
465.20,69.14431
465.40,69.11406
465.60,69.10799
465.80,69.07707
466.00,69.07979
466.20,69.07324
466.40,69.06343
466.60,69.09316
466.80,69.12264
467.00,69.13607
467.20,69.12977
467.40,69.14231
467.60,69.13136
467.80,69.12661
468.00,69.11190
468.20,69.13803
468.40,69.14055
468.60,69.15455
468.80,69.14623
469.00,69.17473
469.20,69.16471
469.40,69.13689
469.60,69.10343
469.80,69.09198
470.00,69.06834
470.20,69.07921
470.40,69.12510
470.60,69.13548
470.80,69.15492
471.00,69.15890
471.20,69.15388
471.40,69.14467
471.60,69.16589
471.80,69.15472
472.00,69.16299
472.20,69.14758
472.40,69.14684
472.60,69.13196
472.80,69.13261
473.00,69.13436
473.20,69.13810
473.40,69.15212
473.60,69.16727
473.80,69.16705
474.00,69.15275
474.20,69.16362
474.40,69.14780
474.60,69.13044
474.80,69.15073
475.00,69.16191
475.20,69.16615
475.40,69.16049
475.60,69.18210
475.80,69.19584
476.00,69.19468
476.20,69.19774
476.40,69.23488
476.60,69.23207
476.80,69.21066
477.00,69.21887
477.20,69.22619
477.40,69.18812
477.60,69.17863
477.80,69.17263
478.00,69.17849
478.20,69.18088
478.40,69.19456
478.60,69.19668
478.80,69.23063
479.00,69.22052
479.20,69.21458
479.40,69.21389
479.60,69.23364
479.80,69.22224
480.00,69.22758
480.20,69.24373
480.40,69.25877
480.60,69.25380
480.80,69.25337
481.00,69.26329
481.20,69.27855
481.40,69.28152
481.60,69.26520
481.80,69.26451
482.00,69.27028
482.20,69.24352
482.40,69.23261
482.60,69.24444
482.80,69.24145
483.00,69.22496
483.20,69.23084
483.40,69.23460
483.60,69.27933
483.80,69.29426
484.00,69.30763
484.20,69.31706
484.40,69.32529
484.60,69.27953
484.80,69.25994
485.00,69.26442
485.20,69.25187
485.40,69.23830
485.60,69.24461
485.80,69.24751
486.00,69.24552
486.20,69.25650
486.40,69.27711
486.60,69.28052
486.80,69.27903
487.00,69.27499
487.20,69.27328
487.40,69.25874
487.60,69.24325
487.80,69.24815
488.00,69.25735
488.20,69.26355
488.40,69.25580
488.60,69.26604
488.80,69.26958
489.00,69.25092
489.20,69.23510
489.40,69.23419
489.60,69.25728
489.80,69.26376
490.00,69.26849
490.20,69.30286
490.40,69.31795
490.60,69.31964
490.80,69.32409
491.00,69.34146
491.20,69.31053
491.40,69.31043
491.60,69.28765
491.80,69.30652
492.00,69.30341
492.20,69.34709
492.40,69.35518
492.60,69.37416
492.80,69.34001
493.00,69.32781
493.20,69.31015
493.40,69.31166
493.60,69.31044
493.80,69.33389
494.00,69.34100
494.20,69.32707
494.40,69.33545
494.60,69.34158
494.80,69.34667
495.00,69.36243
495.20,69.36765
495.40,69.36318
495.60,69.33299
495.80,69.29954
496.00,69.28263
496.20,69.27865
496.40,69.25725
496.60,69.27226
496.80,69.29324
497.00,69.30409
497.20,69.30032
497.40,69.32938
497.60,69.33431
497.80,69.33229
498.00,69.33251
498.20,69.33411
498.40,69.32261
498.60,69.32660
498.80,69.34636
499.00,69.33696
499.20,69.35140
499.40,69.36654
499.60,69.37362
499.80,69.35409
500.00,69.33443
500.20,69.32765
500.40,69.31593
500.60,69.29812
500.80,69.30518
501.00,69.32800
501.20,69.32999
501.40,69.31722
501.60,69.35266
501.80,69.35872
502.00,69.35222
502.20,69.34526
502.40,69.36613
502.60,69.33649
502.80,69.32756
503.00,69.35318
503.20,69.36260
503.40,69.34201
503.60,69.34305
503.80,69.33646
504.00,69.31209
504.20,69.31032
504.40,69.33067
504.60,69.32934
504.80,69.32610
505.00,69.35253
505.20,69.35707
505.40,69.34040
505.60,69.36180
505.80,69.38753
506.00,69.37898
506.20,69.34896
506.40,69.35212
506.60,69.32967
506.80,69.31330
507.00,69.30787
507.20,69.32605
507.40,69.32527
507.60,69.33150
507.80,69.35136
508.00,69.35061
508.20,69.34777
508.40,69.31931
508.60,69.32662
508.80,69.29618
509.00,69.30077
509.20,69.30703
509.40,69.34334
509.60,69.36321
509.80,69.37939
510.00,69.38967
510.20,69.40697
510.40,69.42005
510.60,69.39812
510.80,69.40779
511.00,69.40174
511.20,69.40144
511.40,69.40291
511.60,69.39380
511.80,69.37392
512.00,69.38414
512.20,69.37793
512.40,69.36713
512.60,69.35555
512.80,69.36646
513.00,69.33275
513.20,69.36030
513.40,69.36989
513.60,69.40476
513.80,69.40718
514.00,69.42270
514.20,69.39879
514.40,69.39845
514.60,69.38988
514.80,69.36201
515.00,69.36812
515.20,69.35776
515.40,69.33771
515.60,69.34931
515.80,69.38234
516.00,69.37937
516.20,69.41856
516.40,69.42906
516.60,69.42363
516.80,69.41248
517.00,69.40696
517.20,69.37404
517.40,69.37452
517.60,69.35970
517.80,69.39934
518.00,69.40737
518.20,69.41474
518.40,69.42860
518.60,69.44861
518.80,69.43517
519.00,69.44951
519.20,69.45371
519.40,69.45994
519.60,69.44603
519.80,69.42827
520.00,69.43864
520.20,69.41621
520.40,69.39243
520.60,69.39723
520.80,69.41060
521.00,69.39550
521.20,69.41860
521.40,69.42822
521.60,69.42270
521.80,69.40639
522.00,69.40166
522.20,69.37577
522.40,69.36569
522.60,69.35955
522.80,69.37034
523.00,69.35417
523.20,69.36803
523.40,69.38133
523.60,69.40812
523.80,69.41481
524.00,69.43104
524.20,69.42154
524.40,69.40377
524.60,69.39514
524.80,69.38345
525.00,69.39635
525.20,69.40849
525.40,69.42772
525.60,69.41400
525.80,69.43172
526.00,69.41944
526.20,69.41284
526.40,69.40708
526.60,69.39757
526.80,69.38274
527.00,69.35989
527.20,69.37511
527.40,69.36485
527.60,69.39920
527.80,69.39361
528.00,69.40025
528.20,69.38357
528.40,69.39479
528.60,69.37730
528.80,69.40652
529.00,69.41321
529.20,69.41142
529.40,69.42266
529.60,69.41882
529.80,69.40035
530.00,69.41633
530.20,69.45337
530.40,69.44651
530.60,69.44913
530.80,69.43367
531.00,69.44493
531.20,69.42156
531.40,69.41023
531.60,69.39265
531.80,69.38884
532.00,69.37825
532.20,69.41173
532.40,69.42018
532.60,69.43469
532.80,69.44569
533.00,69.44046
533.20,69.40927
533.40,69.42610
533.60,69.42934
533.80,69.43538
534.00,69.42886
534.20,69.43389
534.40,69.41133
534.60,69.42684
534.80,69.44880
535.00,69.45889
535.20,69.45277
535.40,69.46694
535.60,69.44963
535.80,69.42843
536.00,69.42964
536.20,69.46476
536.40,69.46049
536.60,69.46436
536.80,69.46322
537.00,69.46892
537.20,69.45143
537.40,69.46686
537.60,69.46901
537.80,69.45533
538.00,69.46746
538.20,69.46695
538.40,69.42890
538.60,69.44035
538.80,69.44577
539.00,69.41383
539.20,69.38501
539.40,69.39695
539.60,69.37905
539.80,69.40610
540.00,69.41054
540.20,69.43510
540.40,69.44139
540.60,69.46215
540.80,69.44213
541.00,69.45689
541.20,69.44206
541.40,69.42689
541.60,69.41398
541.80,69.43012
542.00,69.41479
542.20,69.43158
542.40,69.46017
542.60,69.48623
542.80,69.49381
543.00,69.50060
543.20,69.51916
543.40,69.50981
543.60,69.50560
543.80,69.48277
544.00,69.50166
544.20,69.46236
544.40,69.44970
544.60,69.43890
544.80,69.43517
545.00,69.43352
545.20,69.43451
545.40,69.41345
545.60,69.40004
545.80,69.40165
546.00,69.40545
546.20,69.41553
546.40,69.45615
546.60,69.45871
546.80,69.45747
547.00,69.42018
547.20,69.41658
547.40,69.40051
547.60,69.43637
547.80,69.45546
548.00,69.49922
548.20,69.50880
548.40,69.52055
548.60,69.48035
548.80,69.46419
549.00,69.45528
549.20,69.45497
549.40,69.45918
549.60,69.47710
549.80,69.48600
550.00,69.48717
550.20,69.47972
550.40,69.48313
550.60,69.48805
550.80,69.49678
551.00,69.47056
551.20,69.49766
551.40,69.48529
551.60,69.48100
551.80,69.48286
552.00,69.51239
552.20,69.50509
552.40,69.51265
552.60,69.50163
552.80,69.48572
553.00,69.46346
553.20,69.44950
553.40,69.44023
553.60,69.46772
553.80,69.49434
554.00,69.49324
554.20,69.49574
554.40,69.51542
554.60,69.48689
554.80,69.48929
555.00,69.50559
555.20,69.53480
555.40,69.53037
555.60,69.54262
555.80,69.52847
556.00,69.52792
556.20,69.49634
556.40,69.50421
556.60,69.51419
556.80,69.51697
557.00,69.52232
557.20,69.55299
557.40,69.54190
557.60,69.54245
557.80,69.53999
558.00,69.53056
558.20,69.48951
558.40,69.50825
558.60,69.49263
558.80,69.47709
559.00,69.49036
559.20,69.51999
559.40,69.51039
559.60,69.52823
559.80,69.54466
560.00,69.55209
560.20,69.55698
560.40,69.55490
560.60,69.55591
560.80,69.55163
561.00,69.55441
561.20,69.52266
561.40,69.54335
561.60,69.53272
561.80,69.53248
562.00,69.53127
562.20,69.56300
562.40,69.55253
562.60,69.54079
562.80,69.55533
563.00,69.55348
563.20,69.55184
563.40,69.55928
563.60,69.59114
563.80,69.58117
564.00,69.56789
564.20,69.57539
564.40,69.55572
564.60,69.53512
564.80,69.52798
565.00,69.53291
565.20,69.51941
565.40,69.53109
565.60,69.52583
565.80,69.54188
566.00,69.55156
566.20,69.55274
566.40,69.55271
566.60,69.57432
566.80,69.56573
567.00,69.58681
567.20,69.60616
567.40,69.58987
567.60,69.59406
567.80,69.61964
568.00,69.60905
568.20,69.58942
568.40,69.61117
568.60,69.60808
568.80,69.58256
569.00,69.57000
569.20,69.57915
569.40,69.57953
569.60,69.57942
569.80,69.56991
570.00,69.56346
570.20,69.53996
570.40,69.53372
570.60,69.51073
570.80,69.51293
571.00,69.53002
571.20,69.57701
571.40,69.59694
571.60,69.62191
571.80,69.64815
572.00,69.64367
572.20,69.64714
572.40,69.64524
572.60,69.64681
572.80,69.62646
573.00,69.65324
573.20,69.62822
573.40,69.63103
573.60,69.62649
573.80,69.64678
574.00,69.60536
574.20,69.59912
574.40,69.59759
574.60,69.61119
574.80,69.62097
575.00,69.64809
575.20,69.66673
575.40,69.66853
575.60,69.66290
575.80,69.67540
576.00,69.66667
576.20,69.66950
576.40,69.66704
576.60,69.66054
576.80,69.64737
577.00,69.67409
577.20,69.66524
577.40,69.66591
577.60,69.66317
577.80,69.68575
578.00,69.68397
578.20,69.69185
578.40,69.69287
578.60,69.72120
578.80,69.69243
579.00,69.65870
579.20,69.64375
579.40,69.64087
579.60,69.62943
579.80,69.62225
580.00,69.61901
580.20,69.62957
580.40,69.62349
580.60,69.63083
580.80,69.64530
581.00,69.65613
581.20,69.65901
581.40,69.67102
581.60,69.67037
581.80,69.66380
582.00,69.69337
582.20,69.70326
582.40,69.70606
582.60,69.70112
582.80,69.69116
583.00,69.67580
583.20,69.67258
583.40,69.65863
583.60,69.66834
583.80,69.70990
584.00,69.70670
584.20,69.71300
584.40,69.73239
584.60,69.71558
584.80,69.69000
585.00,69.70043
585.20,69.71989
585.40,69.72492
585.60,69.73315
585.80,69.72888
586.00,69.72896
586.20,69.72722
586.40,69.73338
586.60,69.73178
586.80,69.74159
587.00,69.74419
587.20,69.74828
587.40,69.73801
587.60,69.73289
587.80,69.74215
588.00,69.73783
588.20,69.72536
588.40,69.72014
588.60,69.74162
588.80,69.73793
589.00,69.74528
589.20,69.75176
589.40,69.75743
589.60,69.76259
589.80,69.75921
590.00,69.76486
590.20,69.73903
590.40,69.74738
590.60,69.73625
590.80,69.73795
591.00,69.76040
591.20,69.76544
591.40,69.77482
591.60,69.78852
591.80,69.80411
592.00,69.76318
592.20,69.79210
592.40,69.77689
592.60,69.74642
592.80,69.75807
593.00,69.78695
593.20,69.78578
593.40,69.77134
593.60,69.78951
593.80,69.79368
594.00,69.77700
594.20,69.76637
594.40,69.79660
594.60,69.81411
594.80,69.79683
595.00,69.79608
595.20,69.81565
595.40,69.83391
595.60,69.82543
595.80,69.82217
596.00,69.84382
596.20,69.84078
596.40,69.84209
596.60,69.86125
596.80,69.86537
597.00,69.84817
597.20,69.82191
597.40,69.80369
597.60,69.80039
597.80,69.79830
598.00,69.81285
598.20,69.83092
598.40,69.81612
598.60,69.83308
598.80,69.84395
599.00,69.85002
599.20,69.87605
599.40,69.90752
599.60,69.88638
599.80,69.86803
600.00,69.85628
600.20,69.85343
600.40,69.85533
600.60,69.86105
600.80,69.89031
601.00,69.90863
601.20,69.89037
601.40,69.88912
601.60,69.88010
601.80,69.87988
602.00,69.88808
602.20,69.89515
602.40,69.89169
602.60,69.92069
602.80,69.92307
603.00,69.90508
603.20,69.92980
603.40,69.95431
603.60,69.93882
603.80,69.94588
604.00,69.96117
604.20,69.92000
604.40,69.89154
604.60,69.89592
604.80,69.89477
605.00,69.89757
605.20,69.91836
605.40,69.92674
605.60,69.91943
605.80,69.92586
606.00,69.94165
606.20,69.94890
606.40,69.94143
606.60,69.94691
606.80,69.93323
607.00,69.89659
607.20,69.89165
607.40,69.90615
607.60,69.91131
607.80,69.90476
608.00,69.91074
608.20,69.88993
608.40,69.89105
608.60,69.89952
608.80,69.93572
609.00,69.96413
609.20,70.00292
609.40,70.02071
609.60,70.01054
609.80,70.00199
610.00,69.99246
610.20,69.98686
610.40,69.96275
610.60,69.96063
610.80,69.96525
611.00,69.96810
611.20,69.96495
611.40,69.97209
611.60,69.98354
611.80,69.96798
612.00,69.95149
612.20,69.96710
612.40,69.99198
612.60,69.98357
612.80,70.00035
613.00,70.02702
613.20,70.00468
613.40,69.99378
613.60,70.01359
613.80,70.00342
614.00,70.00651
614.20,70.02716
614.40,70.00942
614.60,69.99986
614.80,70.03819
615.00,70.02607
615.20,70.04244
615.40,70.04555
615.60,70.05684
615.80,70.05775
616.00,70.06756
616.20,70.07149
616.40,70.08752
616.60,70.09865
616.80,70.06091
617.00,70.06539
617.20,70.04286
617.40,70.04899
617.60,70.05062
617.80,70.07920
618.00,70.07253
618.20,70.09376
618.40,70.08395
618.60,70.07909
618.80,70.09910
619.00,70.08634
619.20,70.08062
619.40,70.09585
619.60,70.08411
619.80,70.06627
620.00,70.09188
620.20,70.09678
620.40,70.09959
620.60,70.09926
620.80,70.10555
621.00,70.10204
621.20,70.10632
621.40,70.10078
621.60,70.12123
621.80,70.11733
622.00,70.12432
622.20,70.11645
622.40,70.10881
622.60,70.11361
622.80,70.12693
623.00,70.09985
623.20,70.11184
623.40,70.13759
623.60,70.13324
623.80,70.12230
624.00,70.16183
624.20,70.15193
624.40,70.13973
624.60,70.14343
624.80,70.13741
625.00,70.13395
625.20,70.13013
625.40,70.13923
625.60,70.14470
625.80,70.16030
626.00,70.16212
626.20,70.17424
626.40,70.18555
626.60,70.15578
626.80,70.16768
627.00,70.17220
627.20,70.17760
627.40,70.18340
627.60,70.22655
627.80,70.22198
628.00,70.22721
628.20,70.22333
628.40,70.23926
628.60,70.22940
628.80,70.21509
629.00,70.21095
629.20,70.22877
629.40,70.20947
629.60,70.22056
629.80,70.24083
630.00,70.25592
630.20,70.24275
630.40,70.23386
630.60,70.23419
630.80,70.21948
631.00,70.20104
631.20,70.20201
631.40,70.23556
631.60,70.24632
631.80,70.26974
632.00,70.27237
632.20,70.29753
632.40,70.26846
632.60,70.26958
632.80,70.26151
633.00,70.27290
633.20,70.26184
633.40,70.27767
633.60,70.24500
633.80,70.25639
634.00,70.26473
634.20,70.28784
634.40,70.29488
634.60,70.31502
634.80,70.31267
635.00,70.32222
635.20,70.29148
635.40,70.29712
635.60,70.30766
635.80,70.30995
636.00,70.31438
636.20,70.35699
636.40,70.38372
636.60,70.38746
636.80,70.39186
637.00,70.40097
637.20,70.38283
637.40,70.39692
637.60,70.42671
637.80,70.43384
638.00,70.41279
638.20,70.44173
638.40,70.42291
638.60,70.38981
638.80,70.39325
639.00,70.40568
639.20,70.37767
639.40,70.37635
639.60,70.40226
639.80,70.40088
640.00,70.40005
640.20,70.41557
640.40,70.40493
640.60,70.38558
640.80,70.39090
641.00,70.38449
641.20,70.39008
641.40,70.37331
641.60,70.40293
641.80,70.41678
642.00,70.46569
642.20,70.45422
642.40,70.48193
642.60,70.49132
642.80,70.48124
643.00,70.46376
643.20,70.49452
643.40,70.49773
643.60,70.48982
643.80,70.49734
644.00,70.50321
644.20,70.48773
644.40,70.47631
644.60,70.48616
644.80,70.49330
645.00,70.50966
645.20,70.52651
645.40,70.54874
645.60,70.55910
645.80,70.53923
646.00,70.53677
646.20,70.52347
646.40,70.53568
646.60,70.52317
646.80,70.59160
647.00,70.61571
647.20,70.61710
647.40,70.62421
647.60,70.60573
647.80,70.58333
648.00,70.56645
648.20,70.57994
648.40,70.59258
648.60,70.62459
648.80,70.59294
649.00,70.59102
649.20,70.61186
649.40,70.60426
649.60,70.61604
649.80,70.63700
650.00,70.63607
650.20,70.60409
650.40,70.62247
650.60,70.62882
650.80,70.64540
651.00,70.65702
651.20,70.70988
651.40,70.68694
651.60,70.69057
651.80,70.69759
652.00,70.70791
652.20,70.69395
652.40,70.72908
652.60,70.73879
652.80,70.74785
653.00,70.74131
653.20,70.73596
653.40,70.72408
653.60,70.71565
653.80,70.70767
654.00,70.71934
654.20,70.72926
654.40,70.75806
654.60,70.77181
654.80,70.76109
655.00,70.73179
655.20,70.71856
655.40,70.72517
655.60,70.71168
655.80,70.71836
656.00,70.74794
656.20,70.77405
656.40,70.77855
656.60,70.81688
656.80,70.86052
657.00,70.87411
657.20,70.86322
657.40,70.83912
657.60,70.81669
657.80,70.77731
658.00,70.80149
658.20,70.83302
658.40,70.84978
658.60,70.87181
658.80,70.91975
659.00,70.90757
659.20,70.89605
659.40,70.89204
659.60,70.89674
659.80,70.88843
660.00,70.89260
660.20,70.90171
660.40,70.89775
660.60,70.87576
660.80,70.84643
661.00,70.83672
661.20,70.85021
661.40,70.86974
661.60,70.90468
661.80,70.95013
662.00,70.98694
662.20,70.96160
662.40,70.98911
662.60,71.01490
662.80,71.01594
663.00,71.03707
663.20,71.05582
663.40,71.05179
663.60,71.06367
663.80,71.07525
664.00,71.08130
664.20,71.09920
664.40,71.06661
664.60,71.06522
664.80,71.06952
665.00,71.05443
665.20,71.06249
665.40,71.08237
665.60,71.08558
665.80,71.10152
666.00,71.09627
666.20,71.11284
666.40,71.13081
666.60,71.11582
666.80,71.11147
667.00,71.11236
667.20,71.10817
667.40,71.14511
667.60,71.16524
667.80,71.16081
668.00,71.18051
668.20,71.19054
668.40,71.19075
668.60,71.19119
668.80,71.22862
669.00,71.25892
669.20,71.26187
669.40,71.25564
669.60,71.25393
669.80,71.24956
670.00,71.24805
670.20,71.27113
670.40,71.26784
670.60,71.23919
670.80,71.23129
671.00,71.26560
671.20,71.25514
671.40,71.28606
671.60,71.32569
671.80,71.33712
672.00,71.29833
672.20,71.33595
672.40,71.32156
672.60,71.34704
672.80,71.36316
673.00,71.38631
673.20,71.37941
673.40,71.40429
673.60,71.39847
673.80,71.40628
674.00,71.37384
674.20,71.39626
674.40,71.39574
674.60,71.38239
674.80,71.40637
675.00,71.46121
675.20,71.45108
675.40,71.46904
675.60,71.50197
675.80,71.51475
676.00,71.49650
676.20,71.49528
676.40,71.48675
676.60,71.48189
676.80,71.47385
677.00,71.52492
677.20,71.58437
677.40,71.59680
677.60,71.65061
677.80,71.68410
678.00,71.68555
678.20,71.63953
678.40,71.66222
678.60,71.66231
678.80,71.65991
679.00,71.63978
679.20,71.67684
679.40,71.71834
679.60,71.72539
679.80,71.72429
680.00,71.74058
680.20,71.74492
680.40,71.68157
680.60,71.66670
680.80,71.69747
681.00,71.71047
681.20,71.67336
681.40,71.74794
681.60,71.78576
681.80,71.79187
682.00,71.81181
682.20,71.88993
682.40,71.88086
682.60,71.88698
682.80,71.88796
683.00,71.89184
683.20,71.88036
683.40,71.89664
683.60,71.93825
683.80,71.95946
684.00,71.95750
684.20,72.00304
684.40,72.00899
684.60,72.01830
684.80,72.02804
685.00,72.07636
685.20,72.07274
685.40,72.09920
685.60,72.07744
685.80,72.09828
686.00,72.11272
686.20,72.11866
686.40,72.11739
686.60,72.13074
686.80,72.14609
687.00,72.13794
687.20,72.19432
687.40,72.20450
687.60,72.22516
687.80,72.24404
688.00,72.30361
688.20,72.28929
688.40,72.31213
688.60,72.32818
688.80,72.33291
689.00,72.32147
689.20,72.33980
689.40,72.39225
689.60,72.40349
689.80,72.40362
690.00,72.44970
690.20,72.43595
690.40,72.42846
690.60,72.48108
690.80,72.50184
691.00,72.46336
691.20,72.51029
691.40,72.53572
691.60,72.49208
691.80,72.56871
692.00,72.59102
692.20,72.60451
692.40,72.61586
692.60,72.66484
692.80,72.62630
693.00,72.66154
693.20,72.64406
693.40,72.66083
693.60,72.69905
693.80,72.76439
694.00,72.75847
694.20,72.79198
694.40,72.80129
694.60,72.81010
694.80,72.77153
695.00,72.81474
695.20,72.83299
695.40,72.86278
695.60,72.84270
695.80,72.83936
696.00,72.85137
696.20,72.87511
696.40,72.87359
696.60,72.92187
696.80,72.97609
697.00,72.96979
697.20,73.01406
697.40,73.03382
697.60,73.04907
697.80,73.03840
698.00,73.05377
698.20,73.01333
698.40,72.98543
698.60,72.99144
698.80,73.03697
699.00,73.08421
699.20,73.17082
699.40,73.25902
699.60,73.27005
699.80,73.33296
700.00,73.30338
700.20,73.28763
700.40,73.24404
700.60,73.23914
700.80,73.20561
701.00,73.23900
701.20,73.21764
701.40,73.21930
701.60,73.23510
701.80,73.22798
702.00,73.23474
702.20,73.28926
702.40,73.37834
702.60,73.41112
702.80,73.48702
703.00,73.52876
703.20,73.53016
703.40,73.53711
703.60,73.58946
703.80,73.51577
704.00,73.53843
704.20,73.53446
704.40,73.50384
704.60,73.50091
704.80,73.54415
705.00,73.54156
705.20,73.54837
705.40,73.58729
705.60,73.59694
705.80,73.60640
706.00,73.62733
706.20,73.69180
706.40,73.74229
706.60,73.74676
706.80,73.81468
707.00,73.84527
707.20,73.86717
707.40,73.88012
707.60,73.92640
707.80,73.88607
708.00,73.87907
708.20,73.87298
708.40,73.86849
708.60,73.83339
708.80,73.84900
709.00,73.87407
709.20,73.88464
709.40,73.91723
709.60,73.94987
709.80,73.98666
710.00,74.01237
710.20,74.05300
710.40,74.03731
710.60,74.01797
710.80,74.04301
711.00,74.03592
711.20,74.04592
711.40,74.07109
711.60,74.14268
711.80,74.15987
712.00,74.20757
712.20,74.22791
712.40,74.22801
712.60,74.25678
712.80,74.24803
713.00,74.24854
713.20,74.21052
713.40,74.23309
713.60,74.21120
713.80,74.24760
714.00,74.25225
714.20,74.27769
714.40,74.26516
714.60,74.33848
714.80,74.34938
715.00,74.35012
715.20,74.34689
715.40,74.35350
715.60,74.34680
715.80,74.32150
716.00,74.32991
716.20,74.32112
716.40,74.35905
716.60,74.37313
716.80,74.42987
717.00,74.49110
717.20,74.55581
717.40,74.54943
717.60,74.52749
717.80,74.49407
718.00,74.44613
718.20,74.44971
718.40,74.45434
718.60,74.47577
718.80,74.50817
719.00,74.54831
719.20,74.54355
719.40,74.55022
719.60,74.50227
719.80,74.48564
720.00,74.47322
720.20,74.49241
720.40,74.52426
720.60,74.55145
720.80,74.56755
721.00,74.63201
721.20,74.63753
721.40,74.64783
721.60,74.72503
721.80,74.76465
722.00,74.71912
722.20,74.72126
722.40,74.70281
722.60,74.71772
722.80,74.80139
723.00,74.79309
723.20,74.82854
723.40,74.80552
723.60,74.78917
723.80,74.67785
724.00,74.73460
724.20,74.76098
724.40,74.81474
724.60,74.77681
724.80,74.80640
725.00,74.83031
725.20,74.84493
725.40,74.87746
725.60,74.88945
725.80,74.92515
726.00,74.89311
726.20,74.88109
726.40,74.87700
726.60,74.90935
726.80,74.91400
727.00,74.94586
727.20,74.92474
727.40,74.93542
727.60,74.96126
727.80,74.96070
728.00,74.95853
728.20,75.00738
728.40,75.03539
728.60,75.06126
728.80,75.09373
729.00,75.12237
729.20,75.08623
729.40,75.07347
729.60,75.06077
729.80,74.99052
730.00,74.97071
730.20,74.99112
730.40,74.99586
730.60,74.97700
730.80,75.07149
731.00,75.10655
731.20,75.08461
731.40,75.09191
731.60,75.10710
731.80,75.12863
732.00,75.17202
732.20,75.17708
732.40,75.19460
732.60,75.19690
732.80,75.16608
733.00,75.13485
733.20,75.21613
733.40,75.20608
733.60,75.20796
733.80,75.18789
734.00,75.18308
734.20,75.17869
734.40,75.20458
734.60,75.19777
734.80,75.23814
735.00,75.21217
735.20,75.17182
735.40,75.15077
735.60,75.16131
735.80,75.16483
736.00,75.22618
736.20,75.28742
736.40,75.30953
736.60,75.31599
736.80,75.34981
737.00,75.27333
737.20,75.25661
737.40,75.31101
737.60,75.33058
737.80,75.27915
738.00,75.36021
738.20,75.32485
738.40,75.29790
738.60,75.29013
738.80,75.31866
739.00,75.30995
739.20,75.30076
739.40,75.28427
739.60,75.28234
739.80,75.26588
740.00,75.28834
740.20,75.32046
740.40,75.40025
740.60,75.40373
740.80,75.41046
741.00,75.39335
741.20,75.48634
741.40,75.39352
741.60,75.41687
741.80,75.39377
742.00,75.37432
742.20,75.28005
742.40,75.31706
742.60,75.32533
742.80,75.39310
743.00,75.44706
743.20,75.45258
743.40,75.43144
743.60,75.41319
743.80,75.36807
744.00,75.29225
744.20,75.31633
744.40,75.35018
744.60,75.40552
744.80,75.42314
745.00,75.51050
745.20,75.49815
745.40,75.53629
745.60,75.50514
745.80,75.53661
746.00,75.48822
746.20,75.51308
746.40,75.49616
746.60,75.49939
746.80,75.46054
747.00,75.54890
747.20,75.54225
747.40,75.51768
747.60,75.48853
747.80,75.53447
748.00,75.50385
748.20,75.52665
748.40,75.54981
748.60,75.62900
748.80,75.59046
749.00,75.52168
749.20,75.45055
749.40,75.46446
749.60,75.43122
749.80,75.47213
750.00,75.52887
750.20,75.63817
750.40,75.62397
750.60,75.64569
750.80,75.60308
751.00,75.53487
751.20,75.44926
751.40,75.46386
751.60,75.45411
751.80,75.46951
752.00,75.54518
752.20,75.56008
752.40,75.47329
752.60,75.40227
752.80,75.40415
753.00,75.38777
753.20,75.39021
753.40,75.46681
753.60,75.55526
753.80,75.58485
754.00,75.57415
754.20,75.60785
754.40,75.57300
754.60,75.59308
754.80,75.61877
755.00,75.61852
755.20,75.61004
755.40,75.64489
755.60,75.57681
755.80,75.54247
756.00,75.55189
756.20,75.57402
756.40,75.54613
756.60,75.64512
756.80,75.60894
757.00,75.64100
757.20,75.62951
757.40,75.72878
757.60,75.67553
757.80,75.72272
758.00,75.74238
758.20,75.77378
758.40,75.74996
758.60,75.77487
758.80,75.75215
759.00,75.77189
759.20,75.84247
759.40,75.85722
759.60,75.81248
759.80,75.84517
760.00,75.75383
760.20,75.74131
760.40,75.70665
760.60,75.71382
760.80,75.72597
761.00,75.76616
761.20,75.66315
761.40,75.61837
761.60,75.64862
761.80,75.66984
762.00,75.76733
762.20,75.79868
762.40,75.83793
762.60,75.83171
762.80,75.81789
763.00,75.73247
763.20,75.70130
763.40,75.69942
763.60,75.71455
763.80,75.74396
764.00,75.73066
764.20,75.75370
764.40,75.75519
764.60,75.73683
764.80,75.69776
765.00,75.69661
765.20,75.77077
765.40,75.74239
765.60,75.70351
765.80,75.71419
766.00,75.75288
766.20,75.70822
766.40,75.75871
766.60,75.76985
766.80,75.75893
767.00,75.72441
767.20,75.75261
767.40,75.71671
767.60,75.85298
767.80,75.81145
768.00,75.87435
768.20,75.77288
768.40,75.87833
768.60,75.82188
768.80,75.94746
769.00,75.89486
769.20,75.98185
769.40,75.91441
769.60,75.90571
769.80,75.84294
770.00,75.82161
770.20,75.76545
770.40,75.73787
770.60,75.72163
770.80,75.71636
771.00,75.78607
771.20,75.82364
771.40,75.82018
771.60,75.88872
771.80,75.93333
772.00,75.93744
772.20,75.91669
772.40,75.87996
772.60,75.81779
772.80,75.81333
773.00,75.76609
773.20,75.79198
773.40,75.88526
773.60,75.89082
773.80,75.86958
774.00,75.90386
774.20,75.88648
774.40,75.90059
774.60,76.01048
774.80,76.01518
775.00,75.97365
775.20,76.03272
775.40,75.99914
775.60,75.89842
775.80,75.93793
776.00,75.92471
776.20,75.85257
776.40,75.85224
776.60,75.90455
776.80,75.85872
777.00,75.94610
777.20,76.02737
777.40,76.09068
777.60,76.04259
777.80,76.05458
778.00,76.05221
778.20,76.02521
778.40,76.03290
778.60,75.97387
778.80,75.99013
779.00,75.93170
779.20,75.89790
779.40,75.95442
779.60,76.00890
779.80,76.00012
780.00,75.99902
780.20,76.09416
780.40,75.97215
780.60,76.00264
780.80,76.04185
781.00,76.08807
781.20,76.00623
781.40,75.99399
781.60,76.02550
781.80,76.02382
782.00,76.01103
782.20,76.04038
782.40,76.01768
782.60,75.99135
782.80,75.94845
783.00,75.90266
783.20,75.76196
783.40,75.77558
783.60,75.74351
783.80,75.72297
784.00,75.85773
784.20,76.07493
784.40,76.15470
784.60,76.11858
784.80,76.20447
785.00,76.12181
785.20,76.07758
785.40,76.00466
785.60,76.07792
785.80,75.99361
786.00,75.99251
786.20,75.95024
786.40,76.00038
786.60,76.05699
786.80,76.13847
787.00,76.19884
787.20,76.14856
787.40,76.16162
787.60,76.17406
787.80,76.07393
788.00,76.02596
788.20,76.10607
788.40,76.09532
788.60,76.09816
788.80,76.13286
789.00,76.10948
789.20,76.05879
789.40,76.00420
789.60,75.90005
789.80,75.97831
790.00,76.00064
790.20,76.03087
790.40,76.09398
790.60,76.13440
790.80,75.99035
791.00,75.96359
791.20,75.94124
791.40,75.90108
791.60,75.87477
791.80,75.91501
792.00,76.01897
792.20,76.10634
792.40,76.07874
792.60,76.10371
792.80,76.15179
793.00,76.00834
793.20,75.94928
793.40,76.07316
793.60,76.02779
793.80,76.04379
794.00,76.19796
794.20,76.16912
794.40,76.04367
794.60,76.09730
794.80,76.14236
795.00,76.18346
795.20,76.20747
795.40,76.25861
795.60,76.29645
795.80,76.29604
796.00,76.15898
796.20,76.24184
796.40,76.25694
796.60,76.22254
796.80,76.12621
797.00,76.19000
797.20,76.22257
797.40,76.22626
797.60,76.27087
797.80,76.33410
798.00,76.25605
798.20,76.22129
798.40,76.13068
798.60,76.04349
798.80,76.08496
799.00,76.15275
799.20,76.09525
799.40,76.23384
799.60,76.33936
799.80,76.36485
800.00,76.42113
