"MN1534VSlow - RawData"
"Wavelength nm.","T%"
200.00,0.42616
201.00,0.37494
202.00,0.31113
203.00,0.32826
204.00,0.28131
205.00,0.28041
206.00,0.24995
207.00,0.23345
208.00,0.25033
209.00,0.22504
210.00,0.24750
211.00,0.23699
212.00,0.21826
213.00,0.21863
214.00,0.21562
215.00,0.18108
216.00,0.19152
217.00,0.20959
218.00,0.20898
219.00,0.21767
220.00,0.20938
221.00,0.18912
222.00,0.20037
223.00,0.19760
224.00,0.20067
225.00,0.18947
226.00,0.20326
227.00,0.20805
228.00,0.19832
229.00,0.19023
230.00,0.18919
231.00,0.20445
232.00,0.20574
233.00,0.27795
234.00,0.42616
235.00,0.83983
236.00,1.75883
237.00,3.51237
238.00,6.43647
239.00,10.74261
240.00,16.10342
241.00,22.40757
242.00,28.68956
243.00,34.39569
244.00,39.08814
245.00,43.10500
246.00,46.33535
247.00,48.67094
248.00,50.20425
249.00,51.62358
250.00,52.85704
251.00,53.61512
252.00,54.38058
253.00,54.86214
254.00,55.51367
255.00,56.00173
256.00,56.27030
257.00,56.81679
258.00,57.25725
259.00,57.73071
260.00,58.06414
261.00,58.38689
262.00,58.56711
263.00,58.81976
264.00,59.21128
265.00,59.55740
266.00,59.74318
267.00,59.78051
268.00,59.90993
269.00,59.93967
270.00,60.27346
271.00,60.47536
272.00,60.62167
273.00,60.52167
274.00,60.41514
275.00,60.73788
276.00,60.95386
277.00,61.17663
278.00,61.23099
279.00,61.42107
280.00,61.32362
281.00,61.20080
282.00,61.45551
283.00,61.55787
284.00,61.95795
285.00,61.92691
286.00,62.15103
287.00,62.14321
288.00,61.98602
289.00,62.09565
290.00,62.33293
291.00,62.57321
292.00,62.91544
293.00,63.04185
294.00,63.14170
295.00,62.93520
296.00,62.95743
297.00,62.90705
298.00,63.05808
299.00,63.34466
300.00,63.50676
301.00,63.58829
302.00,63.80020
303.00,63.60717
304.00,63.68211
305.00,63.60177
306.00,63.53976
307.00,63.74993
308.00,63.82130
309.00,63.99323
310.00,64.27560
311.00,64.26056
312.00,64.33503
313.00,64.10629
314.00,64.07654
315.00,63.97412
316.00,64.07940
317.00,64.30296
318.00,64.42828
319.00,64.46873
320.00,64.74148
321.00,64.82323
322.00,64.77193
323.00,64.69495
324.00,64.60252
325.00,64.56234
326.00,64.53565
327.00,64.69004
328.00,64.55522
329.00,64.84663
330.00,65.01138
331.00,65.00844
332.00,65.18306
333.00,65.18703
334.00,65.03783
335.00,64.90976
336.00,64.80290
337.00,64.93843
338.00,64.91969
339.00,65.05441
340.00,65.20712
341.00,65.24523
342.00,65.38660
343.00,65.46301
344.00,65.49709
345.00,65.46304
346.00,65.56766
347.00,65.45832
348.00,65.29905
349.00,65.33598
350.00,65.40689
351.00,65.29222
352.00,65.48975
353.00,65.68859
354.00,65.64047
355.00,65.86529
356.00,65.94293
357.00,65.98194
358.00,65.88910
359.00,65.94578
360.00,65.83140
361.00,65.71591
362.00,65.71915
363.00,65.63801
364.00,65.64854
365.00,65.79579
366.00,65.82533
367.00,66.01063
368.00,66.11805
369.00,66.23532
370.00,66.27117
371.00,66.31214
372.00,66.33404
373.00,66.25711
374.00,66.29778
375.00,66.20277
376.00,66.16171
377.00,66.04759
378.00,66.10977
379.00,66.05025
380.00,66.14739
381.00,66.21739
382.00,66.41322
383.00,66.52824
384.00,66.54703
385.00,66.65356
386.00,66.65428
387.00,66.67759
388.00,66.68512
389.00,66.64621
390.00,66.67822
391.00,66.52231
392.00,66.54575
393.00,66.40365
394.00,66.40646
395.00,66.42516
396.00,66.53554
397.00,66.61124
398.00,66.67619
399.00,66.81497
400.00,66.82455
401.00,66.96987
402.00,67.07958
403.00,67.09350
404.00,67.09043
405.00,67.12485
406.00,67.06359
407.00,67.05948
408.00,67.01966
409.00,66.95761
410.00,66.86549
411.00,66.82070
412.00,66.80775
413.00,66.80899
414.00,66.84085
415.00,66.90704
416.00,67.02273
417.00,67.11301
418.00,67.19944
419.00,67.27992
420.00,67.37717
421.00,67.43648
422.00,67.48575
423.00,67.49060
424.00,67.44698
425.00,67.44718
426.00,67.40813
427.00,67.40338
428.00,67.28902
429.00,67.29032
430.00,67.20493
431.00,67.15369
432.00,67.19079
433.00,67.18770
434.00,67.20283
435.00,67.25408
436.00,67.33856
437.00,67.42169
438.00,67.54892
439.00,67.64233
440.00,67.70757
441.00,67.79135
442.00,67.82445
443.00,67.89332
444.00,67.93181
445.00,67.89677
446.00,67.86445
447.00,67.81788
448.00,67.77511
449.00,67.70942
450.00,67.64257
451.00,67.54963
452.00,67.50126
453.00,67.45922
454.00,67.45769
455.00,67.43568
456.00,67.50593
457.00,67.56011
458.00,67.60259
459.00,67.69382
460.00,67.80933
461.00,67.87820
462.00,68.00010
463.00,68.08950
464.00,68.16238
465.00,68.27095
466.00,68.29255
467.00,68.33848
468.00,68.38616
469.00,68.32794
470.00,68.27670
471.00,68.22501
472.00,68.20701
473.00,68.14924
474.00,68.06346
475.00,67.92864
476.00,67.92457
477.00,67.88384
478.00,67.81728
479.00,67.80273
480.00,67.80592
481.00,67.81798
482.00,67.83414
483.00,67.95774
484.00,68.01517
485.00,68.12927
486.00,68.18092
487.00,68.26964
488.00,68.37319
489.00,68.45580
490.00,68.54092
491.00,68.66586
492.00,68.70044
493.00,68.77038
494.00,68.82517
495.00,68.79290
496.00,68.78351
497.00,68.74216
498.00,68.64008
499.00,68.62442
500.00,68.55766
501.00,68.48905
502.00,68.42382
503.00,68.32459
504.00,68.26565
505.00,68.21533
506.00,68.14978
507.00,68.09646
508.00,68.09971
509.00,68.11150
510.00,68.14528
511.00,68.18649
512.00,68.21268
513.00,68.35281
514.00,68.40531
515.00,68.48602
516.00,68.64712
517.00,68.73119
518.00,68.86753
519.00,68.94863
520.00,69.01609
521.00,69.12172
522.00,69.20477
523.00,69.16450
524.00,69.21959
525.00,69.25113
526.00,69.27716
527.00,69.24447
528.00,69.20120
529.00,69.14772
530.00,69.09148
531.00,68.97243
532.00,68.94773
533.00,68.87171
534.00,68.78973
535.00,68.70953
536.00,68.62284
537.00,68.57366
538.00,68.51900
539.00,68.50384
540.00,68.45487
541.00,68.42258
542.00,68.46276
543.00,68.49754
544.00,68.53616
545.00,68.55200
546.00,68.66580
547.00,68.72873
548.00,68.82888
549.00,68.95675
550.00,69.07776
551.00,69.18631
552.00,69.29095
553.00,69.37853
554.00,69.47401
555.00,69.55227
556.00,69.65681
557.00,69.69267
558.00,69.76206
559.00,69.80674
560.00,69.78850
561.00,69.84103
562.00,69.76658
563.00,69.79755
564.00,69.73484
565.00,69.68380
566.00,69.59256
567.00,69.57345
568.00,69.48469
569.00,69.38803
570.00,69.28154
571.00,69.19601
572.00,69.13690
573.00,68.97455
574.00,68.93529
575.00,68.88762
576.00,68.84306
577.00,68.82418
578.00,68.76166
579.00,68.80348
580.00,68.80504
581.00,68.81723
582.00,68.86842
583.00,68.92020
584.00,69.03045
585.00,69.09425
586.00,69.19510
587.00,69.27468
588.00,69.37854
589.00,69.50018
590.00,69.63760
591.00,69.72719
592.00,69.85818
593.00,69.97288
594.00,70.06587
595.00,70.14040
596.00,70.21647
597.00,70.28685
598.00,70.32211
599.00,70.38553
600.00,70.41621
601.00,70.41247
602.00,70.39202
603.00,70.37187
604.00,70.36866
605.00,70.27384
606.00,70.24868
607.00,70.20981
608.00,70.10767
609.00,70.04885
610.00,69.98858
611.00,69.86265
612.00,69.75145
613.00,69.69574
614.00,69.57684
615.00,69.49121
616.00,69.42719
617.00,69.33106
618.00,69.29173
619.00,69.21507
620.00,69.19281
621.00,69.14032
622.00,69.16438
623.00,69.15786
624.00,69.16451
625.00,69.24102
626.00,69.21256
627.00,69.28366
628.00,69.35550
629.00,69.43959
630.00,69.56534
631.00,69.58953
632.00,69.74033
633.00,69.83577
634.00,69.93356
635.00,70.05131
636.00,70.18282
637.00,70.32414
638.00,70.39342
639.00,70.52210
640.00,70.61133
641.00,70.75114
642.00,70.82134
643.00,70.87325
644.00,70.95079
645.00,71.01669
646.00,71.07617
647.00,71.12640
648.00,71.15029
649.00,71.18132
650.00,71.12992
651.00,71.11430
652.00,71.14549
653.00,71.03214
654.00,70.98160
655.00,70.94461
656.00,70.85807
657.00,70.74626
658.00,70.72561
659.00,70.58175
660.00,70.55311
661.00,70.47760
662.00,70.34987
663.00,70.24209
664.00,70.08646
665.00,69.99145
666.00,69.90076
667.00,69.82899
668.00,69.77614
669.00,69.66202
670.00,69.62337
671.00,69.61978
672.00,69.60480
673.00,69.54547
674.00,69.49871
675.00,69.48226
676.00,69.48526
677.00,69.56282
678.00,69.59045
679.00,69.66713
680.00,69.69131
681.00,69.77637
682.00,69.92306
683.00,69.96449
684.00,70.02732
685.00,70.13019
686.00,70.26866
687.00,70.33677
688.00,70.50504
689.00,70.59894
690.00,70.75765
691.00,70.88883
692.00,70.93697
693.00,71.08925
694.00,71.24736
695.00,71.34002
696.00,71.40606
697.00,71.55708
698.00,71.61290
699.00,71.62510
700.00,71.69557
701.00,71.82139
702.00,71.84455
703.00,71.87793
704.00,71.91901
705.00,71.94963
706.00,71.91820
707.00,71.93018
708.00,71.90906
709.00,71.90477
710.00,71.73977
711.00,71.83657
712.00,71.77228
713.00,71.65300
714.00,71.60958
715.00,71.58093
716.00,71.47934
717.00,71.35159
718.00,71.25332
719.00,71.23314
720.00,70.95869
721.00,71.00745
722.00,70.86498
723.00,70.71987
724.00,70.76993
725.00,70.58249
726.00,70.56481
727.00,70.38991
728.00,70.27846
729.00,70.19573
730.00,70.24862
731.00,70.16176
732.00,70.05069
733.00,69.99114
734.00,69.98421
735.00,69.99866
736.00,69.84509
737.00,69.97981
738.00,69.87488
739.00,70.04157
740.00,69.99052
741.00,70.13465
742.00,70.12433
743.00,70.23306
744.00,70.20647
745.00,70.42604
746.00,70.31929
747.00,70.48160
748.00,70.59432
749.00,70.77626
750.00,70.90162
751.00,71.00407
752.00,71.13864
753.00,71.21715
754.00,71.25717
755.00,71.38029
756.00,71.50314
757.00,71.70880
758.00,71.76979
759.00,71.95405
760.00,72.04527
761.00,72.18592
762.00,72.25924
763.00,72.35938
764.00,72.36496
765.00,72.49977
766.00,72.60144
767.00,72.63019
768.00,72.69476
769.00,72.85005
770.00,72.82744
771.00,72.83787
772.00,72.83241
773.00,72.75115
774.00,72.89637
775.00,72.83393
776.00,72.82639
777.00,72.83928
778.00,72.85050
779.00,72.88278
780.00,72.73198
781.00,72.91328
782.00,72.61677
783.00,72.55242
784.00,72.36153
785.00,72.46945
786.00,72.40171
787.00,72.32296
788.00,72.11229
789.00,72.00715
790.00,71.90461
791.00,71.79306
792.00,71.69753
793.00,71.67181
794.00,71.63751
795.00,71.48674
796.00,71.18285
797.00,71.23637
798.00,71.12378
799.00,71.05983
800.00,70.96645
