"1345Baseline - RawData"
"Wavelength nm.","T%"
200.00,0.24011
201.00,0.25718
202.00,0.17139
203.00,0.19772
204.00,0.23649
205.00,0.19670
206.00,0.33872
207.00,0.26260
208.00,0.31705
209.00,0.28922
210.00,0.33295
211.00,0.32081
212.00,0.33178
213.00,0.37086
214.00,0.35341
215.00,0.42441
216.00,0.46041
217.00,0.43140
218.00,0.42746
219.00,0.52050
220.00,0.44016
221.00,0.43581
222.00,0.51449
223.00,0.56341
224.00,0.64975
225.00,0.85799
226.00,1.20086
227.00,1.62555
228.00,2.37838
229.00,3.30455
230.00,4.61690
231.00,6.45942
232.00,8.52786
233.00,11.28454
234.00,14.25042
235.00,17.67969
236.00,21.40514
237.00,25.20171
238.00,29.50618
239.00,33.51878
240.00,37.76559
241.00,40.94360
242.00,43.81907
243.00,46.08561
244.00,47.87396
245.00,48.30345
246.00,48.62509
247.00,49.15871
248.00,49.58702
249.00,49.33701
250.00,49.38508
251.00,49.49742
252.00,50.19976
253.00,50.54769
254.00,51.37237
255.00,51.89999
256.00,52.75676
257.00,53.90165
258.00,54.59587
259.00,55.62155
260.00,56.03445
261.00,56.95288
262.00,57.79532
263.00,58.50241
264.00,59.07336
265.00,59.14098
266.00,59.51433
267.00,59.67808
268.00,59.83061
269.00,59.47767
270.00,59.39149
271.00,58.89238
272.00,58.67812
273.00,57.86229
274.00,57.77408
275.00,57.28312
276.00,56.92138
277.00,57.39002
278.00,56.59071
279.00,56.30086
280.00,56.34728
281.00,56.11152
282.00,56.00305
283.00,56.36939
284.00,56.41141
285.00,56.13620
286.00,56.58956
287.00,56.88978
288.00,57.15917
289.00,57.64490
290.00,57.99044
291.00,58.62420
292.00,58.85511
293.00,59.65099
294.00,59.95550
295.00,60.41970
296.00,60.77004
297.00,61.40848
298.00,61.60691
299.00,61.89579
300.00,62.65377
301.00,62.90421
302.00,63.08168
303.00,63.19781
304.00,63.22284
305.00,63.66630
306.00,63.93573
307.00,63.43364
308.00,63.26471
309.00,63.89018
310.00,63.98489
311.00,63.54202
312.00,63.30911
313.00,63.13913
314.00,63.53652
315.00,62.70659
316.00,62.79569
317.00,62.70154
318.00,62.16146
319.00,61.63042
320.00,61.79334
321.00,61.64855
322.00,60.95065
323.00,61.08335
324.00,60.57037
325.00,60.35807
326.00,60.72518
327.00,59.96038
328.00,60.26036
329.00,60.09716
330.00,59.97772
331.00,59.86830
332.00,59.79808
333.00,59.63577
334.00,59.24516
335.00,59.23063
336.00,59.53439
337.00,59.73484
338.00,59.74272
339.00,59.92851
340.00,60.29416
341.00,59.85616
342.00,60.24346
343.00,60.26779
344.00,60.56373
345.00,60.54563
346.00,60.81887
347.00,61.37503
348.00,61.34390
349.00,61.52773
350.00,61.61036
351.00,61.92387
352.00,62.21749
353.00,62.62726
354.00,62.92474
355.00,62.99811
356.00,63.44327
357.00,63.59842
358.00,63.44490
359.00,63.86384
360.00,63.94058
361.00,64.02260
362.00,64.11471
363.00,64.92937
364.00,64.75424
365.00,65.47058
366.00,65.14964
367.00,65.00118
368.00,65.29025
369.00,65.17605
370.00,65.43952
371.00,65.78450
372.00,65.77738
373.00,65.50789
374.00,65.54703
375.00,65.15715
376.00,65.33614
377.00,65.47288
378.00,65.30074
379.00,65.32870
380.00,65.35280
381.00,65.17067
382.00,65.18292
383.00,64.93565
384.00,64.92594
385.00,64.81512
386.00,64.56609
387.00,64.30285
388.00,64.33828
389.00,64.25038
390.00,63.93944
391.00,63.88309
392.00,63.77165
393.00,63.47933
394.00,63.45260
395.00,63.13840
396.00,62.97340
397.00,62.92567
398.00,62.85889
399.00,62.60746
400.00,62.52739
401.00,62.39138
402.00,62.18215
403.00,62.27717
404.00,62.00595
405.00,61.95110
406.00,62.07854
407.00,61.79813
408.00,61.42667
409.00,61.59800
410.00,61.46161
411.00,61.76260
412.00,61.22407
413.00,61.13944
414.00,61.27174
415.00,61.21835
416.00,61.12658
417.00,61.32850
418.00,61.26899
419.00,61.20525
420.00,61.24222
421.00,61.09236
422.00,61.13174
423.00,61.18320
424.00,61.19475
425.00,61.30568
426.00,61.29332
427.00,61.50403
428.00,61.49406
429.00,61.50259
430.00,61.61034
431.00,61.68795
432.00,61.72870
433.00,61.77818
434.00,61.91111
435.00,62.09579
436.00,62.16753
437.00,62.16105
438.00,62.24620
439.00,62.32516
440.00,62.58424
441.00,62.67796
442.00,62.86883
443.00,62.73803
444.00,62.99227
445.00,63.11765
446.00,63.34010
447.00,63.45996
448.00,63.55637
449.00,63.62682
450.00,63.69646
451.00,63.73619
452.00,64.05392
453.00,64.18873
454.00,64.24829
455.00,64.34063
456.00,64.55389
457.00,64.58415
458.00,64.74230
459.00,64.84329
460.00,64.95180
461.00,65.12920
462.00,65.23221
463.00,65.28147
464.00,65.39451
465.00,65.43261
466.00,65.63404
467.00,65.77098
468.00,65.89399
469.00,65.82741
470.00,65.98020
471.00,65.89511
472.00,66.00860
473.00,66.12091
474.00,66.28711
475.00,66.39974
476.00,66.27983
477.00,66.41993
478.00,66.29413
479.00,66.33605
480.00,66.53680
481.00,66.64354
482.00,66.61726
483.00,66.51695
484.00,66.52554
485.00,66.58210
486.00,66.56094
487.00,66.69228
488.00,66.59386
489.00,66.63454
490.00,66.59277
491.00,66.65403
492.00,66.60565
493.00,66.73949
494.00,66.56931
495.00,66.44166
496.00,66.62276
497.00,66.41864
498.00,66.47139
499.00,66.50488
500.00,66.30673
501.00,66.38491
502.00,66.37394
503.00,66.25633
504.00,66.25359
505.00,66.18368
506.00,66.07742
507.00,66.07826
508.00,66.09738
509.00,66.04796
510.00,65.80185
511.00,65.87360
512.00,65.75888
513.00,65.77522
514.00,65.63536
515.00,65.60849
516.00,65.27641
517.00,65.25728
518.00,65.25663
519.00,65.18729
520.00,65.28693
521.00,65.11667
522.00,65.11988
523.00,65.06616
524.00,65.10838
525.00,64.90566
526.00,64.78894
527.00,64.63966
528.00,64.42563
529.00,64.46859
530.00,64.52775
531.00,64.46146
532.00,64.48271
533.00,64.10639
534.00,64.19566
535.00,64.10022
536.00,63.95453
537.00,63.94277
538.00,63.87566
539.00,63.83282
540.00,63.70829
541.00,63.76831
542.00,63.65309
543.00,63.65615
544.00,63.60288
545.00,63.62270
546.00,63.49583
547.00,63.39341
548.00,63.26166
549.00,63.19366
550.00,63.25690
551.00,63.29055
552.00,63.05994
553.00,62.99752
554.00,62.98938
555.00,62.99413
556.00,62.96135
557.00,62.99238
558.00,62.87994
559.00,63.04564
560.00,62.86508
561.00,62.79391
562.00,62.78020
563.00,62.61312
564.00,62.71405
565.00,62.79894
566.00,62.75117
567.00,62.74076
568.00,62.64154
569.00,62.67616
570.00,62.84291
571.00,62.71357
572.00,62.62189
573.00,62.71794
574.00,62.62081
575.00,62.60865
576.00,62.56652
577.00,62.76749
578.00,62.57992
579.00,62.67731
580.00,62.66313
581.00,62.79542
582.00,62.57893
583.00,62.75564
584.00,62.80380
585.00,62.74256
586.00,62.63157
587.00,62.89284
588.00,62.78003
589.00,62.84549
590.00,62.95186
591.00,62.78850
592.00,62.78298
593.00,62.95634
594.00,62.98587
595.00,62.98489
596.00,62.94010
597.00,63.05379
598.00,63.06201
599.00,63.03961
600.00,63.17245
601.00,63.20797
602.00,63.40158
603.00,63.44029
604.00,63.28367
605.00,63.36415
606.00,63.43570
607.00,63.51610
608.00,63.52133
609.00,63.57502
610.00,63.48447
611.00,63.79117
612.00,63.59910
613.00,63.75660
614.00,63.85774
615.00,63.87978
616.00,64.02302
617.00,63.99230
618.00,63.95782
619.00,64.04694
620.00,64.01085
621.00,64.27540
622.00,64.23479
623.00,64.33167
624.00,64.36090
625.00,64.51577
626.00,64.42937
627.00,64.56581
628.00,64.63863
629.00,64.68293
630.00,64.75260
631.00,64.73576
632.00,64.84231
633.00,65.08123
634.00,64.97671
635.00,65.01883
636.00,65.00563
637.00,65.15881
638.00,65.29753
639.00,65.35395
640.00,65.28714
641.00,65.39782
642.00,65.51829
643.00,65.46775
644.00,65.60438
645.00,65.60778
646.00,65.69638
647.00,65.72992
648.00,65.94132
649.00,65.82727
650.00,65.87991
651.00,66.00249
652.00,66.09322
653.00,66.21541
654.00,66.21087
655.00,66.16813
656.00,66.23993
657.00,66.32620
658.00,66.36581
659.00,66.50470
660.00,66.44119
661.00,66.55065
662.00,66.68899
663.00,66.61412
664.00,66.78784
665.00,67.00714
666.00,66.88163
667.00,67.02711
668.00,66.99998
669.00,67.14274
670.00,67.04414
671.00,67.09874
672.00,67.28693
673.00,67.16472
674.00,67.38741
675.00,67.42252
676.00,67.32274
677.00,67.44235
678.00,67.36036
679.00,67.46990
680.00,67.57443
681.00,67.56372
682.00,67.60415
683.00,67.69779
684.00,67.47243
685.00,67.79059
686.00,67.92046
687.00,67.92901
688.00,67.88535
689.00,67.77217
690.00,67.77118
691.00,67.87815
692.00,67.90344
693.00,68.04740
694.00,68.06647
695.00,68.16199
696.00,68.16803
697.00,68.27520
698.00,68.24486
699.00,68.14457
700.00,68.09418
701.00,68.31173
702.00,68.22289
703.00,68.11057
704.00,68.13487
705.00,68.19816
706.00,68.36212
707.00,68.37946
708.00,68.15588
709.00,68.20226
710.00,68.60368
711.00,68.33612
712.00,68.66927
713.00,68.88584
714.00,68.28421
715.00,68.58009
716.00,68.52223
717.00,68.37858
718.00,68.21631
719.00,68.34261
720.00,68.48250
721.00,68.40003
722.00,68.37583
723.00,68.63921
724.00,68.83808
725.00,68.42436
726.00,68.41304
727.00,68.69326
728.00,68.60551
729.00,68.41999
730.00,68.47051
731.00,68.68717
732.00,68.68173
733.00,68.81103
734.00,68.44576
735.00,68.45896
736.00,68.21879
737.00,69.03118
738.00,68.91983
739.00,68.62170
740.00,68.75986
741.00,68.20871
742.00,68.34694
743.00,68.73829
744.00,68.60462
745.00,68.30641
746.00,69.02236
747.00,68.39995
748.00,68.49091
749.00,68.00483
750.00,68.67037
751.00,68.54400
752.00,68.56625
753.00,68.64018
754.00,68.53668
755.00,68.45263
756.00,68.35350
757.00,68.46212
758.00,68.42221
759.00,68.29761
760.00,68.28529
761.00,68.37478
762.00,68.16475
763.00,67.90915
764.00,68.45940
765.00,68.21668
766.00,68.42396
767.00,68.41190
768.00,68.19172
769.00,68.22740
770.00,68.30124
771.00,67.54012
772.00,67.89363
773.00,68.02092
774.00,68.15850
775.00,68.08226
776.00,68.10101
777.00,67.96474
778.00,68.17371
779.00,67.75228
780.00,68.52951
781.00,68.38490
782.00,67.83909
783.00,68.03488
784.00,68.52627
785.00,68.06219
786.00,67.98998
787.00,67.86922
788.00,67.77137
789.00,67.85778
790.00,67.85938
791.00,68.42812
792.00,68.28191
793.00,67.97665
794.00,67.38064
795.00,67.68787
796.00,67.51754
797.00,68.12475
798.00,66.96409
799.00,67.41024
800.00,67.67480
