"SampleCVSlowTrans - RawData"
"Wavelength nm.","T%"
190.00,1.46923
191.00,0.78494
192.00,0.60637
193.00,0.50456
194.00,0.29971
195.00,0.31608
196.00,0.19617
197.00,0.22061
198.00,0.14727
199.00,0.18262
200.00,0.13520
201.00,0.10845
202.00,0.07136
203.00,0.12448
204.00,0.08690
205.00,0.07063
206.00,0.06903
207.00,0.08697
208.00,0.03625
209.00,0.05848
210.00,0.04602
211.00,0.05490
212.00,0.03334
213.00,0.04234
214.00,0.03208
215.00,0.05410
216.00,0.05082
217.00,0.04336
218.00,0.04233
219.00,0.04652
220.00,0.03597
221.00,0.04731
222.00,0.04921
223.00,0.04512
224.00,0.04131
225.00,0.04857
226.00,0.05135
227.00,0.04614
228.00,0.05933
229.00,0.07485
230.00,0.07735
231.00,0.11392
232.00,0.11977
233.00,0.15932
234.00,0.19055
235.00,0.24488
236.00,0.31318
237.00,0.35534
238.00,0.44187
239.00,0.55967
240.00,0.69079
241.00,0.84793
242.00,1.07595
243.00,1.35934
244.00,1.71885
245.00,2.16240
246.00,2.72817
247.00,3.37394
248.00,4.17927
249.00,5.12449
250.00,6.29075
251.00,7.72381
252.00,9.47320
253.00,11.56526
254.00,14.04794
255.00,16.83042
256.00,19.76104
257.00,22.88310
258.00,25.80585
259.00,28.59527
260.00,31.00101
261.00,33.02073
262.00,34.96918
263.00,36.40233
264.00,37.88629
265.00,39.06915
266.00,40.27868
267.00,41.19551
268.00,42.00411
269.00,42.65348
270.00,43.07242
271.00,43.26791
272.00,43.33344
273.00,43.45666
274.00,43.32291
275.00,43.15371
276.00,43.22361
277.00,43.12283
278.00,43.14959
279.00,43.26614
280.00,43.44772
281.00,43.65925
282.00,44.06908
283.00,44.31765
284.00,44.74811
285.00,45.10573
286.00,45.55281
287.00,45.85783
288.00,46.00931
289.00,46.17272
290.00,46.31352
291.00,46.22256
292.00,46.32554
293.00,46.22908
294.00,46.15020
295.00,46.03662
296.00,45.85459
297.00,45.77617
298.00,45.64098
299.00,45.55060
300.00,45.55016
301.00,45.60020
302.00,45.64413
303.00,45.83567
304.00,45.96670
305.00,46.19300
306.00,46.23018
307.00,46.55500
308.00,46.63559
309.00,46.96534
310.00,47.22093
311.00,47.44886
312.00,47.58046
313.00,47.71465
314.00,47.77173
315.00,47.79183
316.00,47.84112
317.00,47.87115
318.00,47.73232
319.00,47.58578
320.00,47.60956
321.00,47.36396
322.00,47.29498
323.00,47.17104
324.00,46.65822
325.00,46.60569
326.00,46.49746
327.00,46.30794
328.00,46.32014
329.00,46.41666
330.00,46.39517
331.00,46.45807
332.00,46.43196
333.00,46.58056
334.00,46.66500
335.00,46.87387
336.00,46.95498
337.00,47.11518
338.00,47.28828
339.00,47.42351
340.00,47.63170
341.00,47.87135
342.00,48.02371
343.00,48.03236
344.00,48.28943
345.00,48.33241
346.00,48.50186
347.00,48.47960
348.00,48.59900
349.00,48.70188
350.00,48.59836
351.00,48.61107
352.00,48.51288
353.00,48.52665
354.00,48.37613
355.00,48.33093
356.00,48.25059
357.00,48.11689
358.00,48.04806
359.00,47.94082
360.00,47.81120
361.00,47.78116
362.00,47.64825
363.00,47.64368
364.00,47.53630
365.00,47.38494
366.00,47.47354
367.00,47.46431
368.00,47.31856
369.00,47.45050
370.00,47.41480
371.00,47.50657
372.00,47.63648
373.00,47.63352
374.00,47.77436
375.00,47.86123
376.00,47.97718
377.00,48.09065
378.00,48.20504
379.00,48.39095
380.00,48.49449
381.00,48.63215
382.00,48.82025
383.00,48.83718
384.00,49.00597
385.00,49.17440
386.00,49.25041
387.00,49.40956
388.00,49.47636
389.00,49.55447
390.00,49.62749
391.00,49.67448
392.00,49.72630
393.00,49.69227
394.00,49.71249
395.00,49.77206
396.00,49.71942
397.00,49.67645
398.00,49.60701
399.00,49.53701
400.00,49.53843
401.00,49.46896
402.00,49.39119
403.00,49.35430
404.00,49.26714
405.00,49.24017
406.00,49.10983
407.00,49.04984
408.00,48.93852
409.00,48.82987
410.00,48.76511
411.00,48.74687
412.00,48.66219
413.00,48.58552
414.00,48.57312
415.00,48.49769
416.00,48.48836
417.00,48.48607
418.00,48.45912
419.00,48.43526
420.00,48.47278
421.00,48.48123
422.00,48.51371
423.00,48.55314
424.00,48.59128
425.00,48.66199
426.00,48.68047
427.00,48.76489
428.00,48.84124
429.00,48.96433
430.00,49.01454
431.00,49.13017
432.00,49.19215
433.00,49.29615
434.00,49.42628
435.00,49.53615
436.00,49.62640
437.00,49.73642
438.00,49.82668
439.00,49.93381
440.00,50.01428
441.00,50.14839
442.00,50.27100
443.00,50.33776
444.00,50.44402
445.00,50.53405
446.00,50.56236
447.00,50.62819
448.00,50.66493
449.00,50.76112
450.00,50.76393
451.00,50.81316
452.00,50.87188
453.00,50.87871
454.00,50.92149
455.00,50.90876
456.00,50.89495
457.00,50.90070
458.00,50.85704
459.00,50.85173
460.00,50.83219
461.00,50.79236
462.00,50.75967
463.00,50.68665
464.00,50.65476
465.00,50.62229
466.00,50.54358
467.00,50.46556
468.00,50.42087
469.00,50.36333
470.00,50.30938
471.00,50.23583
472.00,50.19996
473.00,50.08851
474.00,50.03663
475.00,49.96670
476.00,49.96393
477.00,49.86981
478.00,49.81695
479.00,49.79304
480.00,49.73895
481.00,49.67932
482.00,49.61160
483.00,49.64443
484.00,49.60033
485.00,49.56396
486.00,49.53272
487.00,49.52148
488.00,49.50077
489.00,49.49597
490.00,49.49702
491.00,49.51855
492.00,49.48649
493.00,49.50261
494.00,49.55841
495.00,49.56959
496.00,49.62840
497.00,49.62728
498.00,49.68228
499.00,49.71634
500.00,49.79333
501.00,49.81673
502.00,49.88001
503.00,49.97424
504.00,50.00575
505.00,50.08342
506.00,50.16421
507.00,50.21034
508.00,50.30661
509.00,50.37311
510.00,50.45398
511.00,50.52909
512.00,50.59400
513.00,50.67133
514.00,50.74698
515.00,50.86142
516.00,50.94334
517.00,51.02957
518.00,51.08188
519.00,51.17792
520.00,51.24717
521.00,51.35059
522.00,51.36232
523.00,51.48994
524.00,51.54244
525.00,51.61254
526.00,51.65078
527.00,51.74934
528.00,51.79959
529.00,51.82435
530.00,51.92197
531.00,51.94836
532.00,52.03492
533.00,52.06403
534.00,52.08641
535.00,52.10212
536.00,52.12703
537.00,52.18652
538.00,52.20959
539.00,52.23777
540.00,52.23492
541.00,52.28220
542.00,52.27406
543.00,52.27732
544.00,52.25809
545.00,52.25163
546.00,52.25462
547.00,52.24211
548.00,52.21244
549.00,52.20872
550.00,52.19724
551.00,52.15435
552.00,52.12012
553.00,52.11620
554.00,52.05120
555.00,52.02361
556.00,51.95517
557.00,51.98666
558.00,51.92461
559.00,51.88175
560.00,51.81658
561.00,51.79972
562.00,51.77013
563.00,51.71397
564.00,51.67093
565.00,51.63217
566.00,51.58557
567.00,51.54437
568.00,51.50509
569.00,51.45929
570.00,51.43174
571.00,51.40058
572.00,51.34826
573.00,51.28828
574.00,51.24282
575.00,51.18603
576.00,51.21406
577.00,51.12149
578.00,51.13199
579.00,51.06993
580.00,51.06252
581.00,51.00839
582.00,51.02241
583.00,50.97530
584.00,50.96026
585.00,50.95539
586.00,50.91795
587.00,50.91044
588.00,50.90796
589.00,50.91301
590.00,50.92295
591.00,50.89571
592.00,50.88088
593.00,50.89521
594.00,50.87548
595.00,50.90746
596.00,50.90749
597.00,50.92142
598.00,50.96326
599.00,50.92711
600.00,50.99359
601.00,50.99454
602.00,51.04104
603.00,51.05568
604.00,51.06205
605.00,51.10080
606.00,51.15800
607.00,51.18620
608.00,51.21094
609.00,51.24763
610.00,51.30020
611.00,51.35616
612.00,51.36195
613.00,51.42920
614.00,51.47519
615.00,51.54237
616.00,51.57522
617.00,51.60846
618.00,51.65513
619.00,51.72919
620.00,51.78370
621.00,51.82793
622.00,51.93399
623.00,51.97046
624.00,52.04138
625.00,52.10156
626.00,52.15360
627.00,52.19348
628.00,52.28375
629.00,52.33212
630.00,52.40761
631.00,52.44743
632.00,52.51416
633.00,52.57918
634.00,52.64585
635.00,52.71845
636.00,52.71443
637.00,52.80445
638.00,52.86896
639.00,52.97147
640.00,53.00795
641.00,53.07649
642.00,53.14957
643.00,53.16172
644.00,53.22522
645.00,53.26368
646.00,53.34263
647.00,53.40050
648.00,53.45566
649.00,53.43014
650.00,53.53770
651.00,53.60714
652.00,53.59982
653.00,53.69478
654.00,53.70129
655.00,53.71535
656.00,53.77564
657.00,53.79732
658.00,53.85363
659.00,53.85579
660.00,53.91881
661.00,53.95029
662.00,53.95418
663.00,54.01796
664.00,54.03392
665.00,54.04693
666.00,54.05557
667.00,54.06064
668.00,54.09244
669.00,54.10839
670.00,54.13573
671.00,54.09958
672.00,54.12858
673.00,54.16549
674.00,54.13650
675.00,54.15332
676.00,54.16727
677.00,54.16569
678.00,54.20923
679.00,54.17058
680.00,54.19825
681.00,54.17820
682.00,54.16765
683.00,54.17344
684.00,54.18414
685.00,54.11416
686.00,54.10774
687.00,54.15798
688.00,54.11744
689.00,54.08128
690.00,54.10207
691.00,54.11782
692.00,54.08936
693.00,54.04736
694.00,54.03471
695.00,54.07321
696.00,53.97974
697.00,54.00333
698.00,53.99246
699.00,53.91831
700.00,53.91386
701.00,53.84164
702.00,53.90539
703.00,53.82352
704.00,53.83647
705.00,53.75937
706.00,53.83781
707.00,53.75985
708.00,53.71247
709.00,53.65185
710.00,53.64024
711.00,53.64977
712.00,53.64507
713.00,53.60068
714.00,53.56379
715.00,53.54707
716.00,53.57858
717.00,53.47288
718.00,53.50329
719.00,53.54944
720.00,53.40003
721.00,53.46373
722.00,53.44154
723.00,53.28702
724.00,53.36984
725.00,53.32703
726.00,53.35331
727.00,53.26359
728.00,53.30420
729.00,53.24331
730.00,53.23318
731.00,53.24010
732.00,53.26107
733.00,53.15663
734.00,53.22661
735.00,53.18250
736.00,53.17470
737.00,53.20060
738.00,53.15195
739.00,53.15613
740.00,53.19488
741.00,53.14850
742.00,53.14659
743.00,53.11408
744.00,53.10313
745.00,53.10849
746.00,53.06228
747.00,53.06280
748.00,53.05182
749.00,53.08404
750.00,53.10905
751.00,53.06934
752.00,53.06962
753.00,52.99102
754.00,53.06835
755.00,53.03416
756.00,53.10639
757.00,53.08254
758.00,53.11452
759.00,53.14180
760.00,53.06746
761.00,53.03609
762.00,53.12303
763.00,53.03486
764.00,53.10642
765.00,53.17990
766.00,53.02103
767.00,53.16077
768.00,53.17176
769.00,53.24714
770.00,53.25345
771.00,53.25748
772.00,53.33853
773.00,53.31182
774.00,53.31407
775.00,53.31109
776.00,53.43392
777.00,53.48112
778.00,53.32423
779.00,53.51534
780.00,53.47913
781.00,53.43660
782.00,53.50132
783.00,53.47500
784.00,53.63286
785.00,53.62245
786.00,53.61779
787.00,53.73894
788.00,53.73631
789.00,53.76493
790.00,53.79637
791.00,53.73343
792.00,53.80919
793.00,53.94248
794.00,53.86086
795.00,53.93779
796.00,53.98163
797.00,54.08394
798.00,54.20051
799.00,54.08836
800.00,54.14943
801.00,54.24602
802.00,54.28277
803.00,54.14894
804.00,54.42038
805.00,54.28159
806.00,54.45644
807.00,54.49560
808.00,54.52603
809.00,54.62943
810.00,54.71919
811.00,54.59454
812.00,54.68451
813.00,54.72327
814.00,54.79680
815.00,54.79841
816.00,54.84444
817.00,54.89411
818.00,54.91641
819.00,54.85637
820.00,55.13908
821.00,55.11503
822.00,55.05502
823.00,55.25648
824.00,55.24808
825.00,55.13474
826.00,55.41089
827.00,55.39957
828.00,55.33710
829.00,55.42076
830.00,55.50600
831.00,55.47505
832.00,55.50612
833.00,55.64398
834.00,55.78321
835.00,55.51748
836.00,55.83149
837.00,55.90985
838.00,55.65534
839.00,55.78356
840.00,56.09736
841.00,55.98707
842.00,56.06275
843.00,56.17333
844.00,56.14195
845.00,56.24340
846.00,56.42446
847.00,56.23580
848.00,56.28536
849.00,56.25433
850.00,56.42086
851.00,55.85581
852.00,56.86337
853.00,56.27307
854.00,56.50629
855.00,56.57199
856.00,56.85518
857.00,56.27642
858.00,56.57101
859.00,56.89223
860.00,56.68948
861.00,55.94479
862.00,56.84048
863.00,56.00916
864.00,56.62068
865.00,55.21496
866.00,57.65378
867.00,56.30610
868.00,55.60954
869.00,56.33408
870.00,57.27062
871.00,56.02352
872.00,55.93630
873.00,55.07941
874.00,57.11766
875.00,59.02829
876.00,58.16312
877.00,56.19933
878.00,56.99595
879.00,57.00032
880.00,57.56806
881.00,55.98857
882.00,55.76450
883.00,54.60745
884.00,57.84444
885.00,54.30164
886.00,59.15231
887.00,56.83413
888.00,57.47345
889.00,57.09404
890.00,55.27192
891.00,56.22607
892.00,57.87299
893.00,53.29741
894.00,59.50498
895.00,57.53346
896.00,53.14558
897.00,57.12867
898.00,57.80020
899.00,55.88061
900.00,54.29618
