"SampleBVSlowTrans - RawData"
"Wavelength nm.","T%"
190.00,1.29789
191.00,0.91130
192.00,0.59401
193.00,0.43563
194.00,0.27924
195.00,0.27642
196.00,0.27393
197.00,0.22734
198.00,0.25594
199.00,0.16911
200.00,0.20714
201.00,0.13315
202.00,0.12183
203.00,0.11575
204.00,0.11861
205.00,0.13509
206.00,0.12150
207.00,0.10329
208.00,0.07290
209.00,0.09946
210.00,0.10577
211.00,0.08418
212.00,0.09708
213.00,0.07170
214.00,0.08100
215.00,0.07176
216.00,0.09947
217.00,0.09672
218.00,0.08298
219.00,0.08875
220.00,0.08909
221.00,0.10921
222.00,0.12421
223.00,0.12203
224.00,0.12887
225.00,0.14940
226.00,0.15650
227.00,0.19637
228.00,0.24066
229.00,0.28256
230.00,0.36065
231.00,0.43664
232.00,0.54727
233.00,0.67047
234.00,0.81242
235.00,0.95972
236.00,1.13713
237.00,1.32199
238.00,1.55201
239.00,1.79591
240.00,2.08422
241.00,2.44281
242.00,2.84456
243.00,3.31164
244.00,3.91978
245.00,4.57814
246.00,5.35804
247.00,6.20271
248.00,7.19330
249.00,8.34112
250.00,9.69352
251.00,11.21613
252.00,13.01106
253.00,14.99534
254.00,17.13326
255.00,19.44781
256.00,21.79233
257.00,24.06481
258.00,26.29383
259.00,28.22544
260.00,30.06666
261.00,31.71074
262.00,33.32407
263.00,34.57856
264.00,35.81853
265.00,36.89858
266.00,37.87127
267.00,38.62709
268.00,39.14727
269.00,39.62559
270.00,39.97719
271.00,40.00029
272.00,39.96514
273.00,40.01651
274.00,39.92190
275.00,39.70702
276.00,39.54852
277.00,39.36760
278.00,39.28161
279.00,39.28338
280.00,39.24590
281.00,39.24589
282.00,39.38533
283.00,39.55531
284.00,39.74520
285.00,40.05208
286.00,40.39585
287.00,40.69227
288.00,41.10760
289.00,41.48934
290.00,41.89104
291.00,42.16219
292.00,42.57011
293.00,42.82534
294.00,43.02617
295.00,43.18803
296.00,43.38212
297.00,43.47077
298.00,43.55141
299.00,43.51302
300.00,43.43509
301.00,43.40473
302.00,43.33225
303.00,43.14025
304.00,43.05957
305.00,42.89533
306.00,42.74029
307.00,42.60843
308.00,42.40912
309.00,42.37946
310.00,42.35477
311.00,42.25250
312.00,42.07674
313.00,42.15515
314.00,42.15961
315.00,42.21903
316.00,42.26743
317.00,42.30708
318.00,42.47286
319.00,42.61369
320.00,42.79475
321.00,42.91390
322.00,43.16391
323.00,43.33786
324.00,43.21161
325.00,43.41223
326.00,43.65210
327.00,43.78645
328.00,43.90835
329.00,44.18606
330.00,44.33558
331.00,44.47866
332.00,44.65599
333.00,44.85510
334.00,44.95639
335.00,45.09562
336.00,45.01252
337.00,45.06879
338.00,45.14055
339.00,45.21539
340.00,45.11444
341.00,45.15575
342.00,45.10896
343.00,45.06119
344.00,44.98027
345.00,44.87437
346.00,44.84796
347.00,44.65718
348.00,44.69463
349.00,44.55811
350.00,44.40506
351.00,44.35190
352.00,44.31206
353.00,44.17325
354.00,44.07074
355.00,44.00926
356.00,43.93319
357.00,43.89443
358.00,43.82404
359.00,43.78631
360.00,43.83962
361.00,43.85399
362.00,43.82731
363.00,43.85240
364.00,43.83203
365.00,43.83571
366.00,43.98526
367.00,44.10409
368.00,44.10728
369.00,44.21904
370.00,44.30157
371.00,44.46435
372.00,44.51805
373.00,44.66957
374.00,44.78618
375.00,44.97697
376.00,45.04105
377.00,45.20415
378.00,45.28925
379.00,45.41759
380.00,45.62353
381.00,45.70830
382.00,45.93371
383.00,45.98274
384.00,46.11021
385.00,46.27828
386.00,46.35929
387.00,46.51708
388.00,46.57112
389.00,46.64966
390.00,46.78298
391.00,46.82218
392.00,46.92932
393.00,46.98305
394.00,47.02781
395.00,47.07574
396.00,47.09521
397.00,47.11003
398.00,47.11100
399.00,47.11724
400.00,47.13395
401.00,47.15029
402.00,47.14153
403.00,47.08557
404.00,47.02569
405.00,47.05701
406.00,46.97948
407.00,46.95929
408.00,46.90321
409.00,46.84433
410.00,46.77624
411.00,46.76156
412.00,46.69280
413.00,46.62213
414.00,46.55371
415.00,46.50417
416.00,46.39993
417.00,46.37259
418.00,46.31850
419.00,46.29859
420.00,46.24795
421.00,46.18628
422.00,46.11771
423.00,46.10015
424.00,46.06881
425.00,46.05238
426.00,45.99285
427.00,45.95929
428.00,45.97119
429.00,45.95010
430.00,45.92643
431.00,45.93862
432.00,45.93064
433.00,45.90729
434.00,45.94957
435.00,45.96511
436.00,45.95132
437.00,46.02583
438.00,46.05667
439.00,46.07972
440.00,46.11314
441.00,46.19493
442.00,46.21380
443.00,46.26686
444.00,46.32833
445.00,46.38187
446.00,46.45414
447.00,46.53466
448.00,46.60203
449.00,46.69387
450.00,46.71635
451.00,46.82892
452.00,46.93363
453.00,47.01722
454.00,47.10327
455.00,47.18686
456.00,47.27086
457.00,47.35154
458.00,47.44439
459.00,47.54131
460.00,47.62202
461.00,47.69880
462.00,47.81034
463.00,47.89765
464.00,47.98666
465.00,48.11156
466.00,48.15842
467.00,48.25143
468.00,48.30964
469.00,48.43109
470.00,48.49070
471.00,48.53597
472.00,48.66773
473.00,48.70664
474.00,48.75494
475.00,48.81436
476.00,48.88166
477.00,48.93183
478.00,48.99095
479.00,49.05328
480.00,49.09344
481.00,49.12909
482.00,49.15971
483.00,49.23637
484.00,49.23952
485.00,49.28294
486.00,49.28148
487.00,49.31989
488.00,49.32236
489.00,49.33979
490.00,49.37246
491.00,49.38588
492.00,49.35226
493.00,49.36400
494.00,49.37767
495.00,49.36251
496.00,49.36647
497.00,49.35671
498.00,49.30910
499.00,49.33920
500.00,49.29413
501.00,49.28921
502.00,49.26913
503.00,49.22189
504.00,49.23299
505.00,49.18922
506.00,49.18640
507.00,49.12301
508.00,49.11809
509.00,49.06555
510.00,49.04059
511.00,49.02912
512.00,48.96547
513.00,48.91880
514.00,48.90518
515.00,48.88001
516.00,48.83171
517.00,48.82019
518.00,48.77302
519.00,48.73611
520.00,48.72152
521.00,48.69575
522.00,48.62825
523.00,48.63401
524.00,48.60882
525.00,48.56908
526.00,48.53562
527.00,48.53017
528.00,48.48284
529.00,48.44536
530.00,48.42034
531.00,48.40494
532.00,48.39962
533.00,48.37312
534.00,48.37196
535.00,48.34645
536.00,48.33438
537.00,48.31795
538.00,48.33125
539.00,48.34919
540.00,48.31968
541.00,48.31897
542.00,48.29028
543.00,48.30222
544.00,48.30757
545.00,48.31095
546.00,48.32642
547.00,48.33033
548.00,48.33559
549.00,48.35908
550.00,48.39085
551.00,48.39674
552.00,48.38904
553.00,48.42127
554.00,48.45350
555.00,48.47472
556.00,48.49573
557.00,48.53212
558.00,48.56041
559.00,48.59630
560.00,48.60031
561.00,48.66183
562.00,48.68189
563.00,48.70941
564.00,48.78270
565.00,48.78182
566.00,48.85235
567.00,48.88811
568.00,48.92105
569.00,48.97886
570.00,49.00214
571.00,49.08648
572.00,49.10606
573.00,49.14776
574.00,49.18073
575.00,49.23257
576.00,49.31270
577.00,49.34734
578.00,49.41930
579.00,49.45140
580.00,49.51510
581.00,49.56505
582.00,49.62940
583.00,49.67358
584.00,49.71187
585.00,49.78746
586.00,49.84531
587.00,49.92174
588.00,49.97258
589.00,50.02543
590.00,50.08554
591.00,50.14713
592.00,50.18231
593.00,50.24836
594.00,50.29024
595.00,50.37832
596.00,50.41955
597.00,50.49663
598.00,50.54520
599.00,50.59772
600.00,50.65217
601.00,50.69507
602.00,50.76627
603.00,50.84106
604.00,50.88958
605.00,50.93731
606.00,51.01271
607.00,51.04588
608.00,51.08756
609.00,51.14741
610.00,51.17118
611.00,51.24692
612.00,51.28883
613.00,51.33258
614.00,51.38939
615.00,51.42717
616.00,51.48810
617.00,51.51435
618.00,51.54154
619.00,51.63148
620.00,51.65264
621.00,51.69117
622.00,51.72421
623.00,51.74673
624.00,51.79093
625.00,51.83966
626.00,51.87824
627.00,51.93145
628.00,51.96788
629.00,51.94809
630.00,52.01702
631.00,52.03131
632.00,52.04715
633.00,52.09773
634.00,52.12703
635.00,52.14930
636.00,52.14234
637.00,52.19734
638.00,52.18140
639.00,52.22646
640.00,52.23511
641.00,52.29058
642.00,52.30325
643.00,52.29540
644.00,52.31040
645.00,52.32623
646.00,52.32720
647.00,52.33593
648.00,52.37488
649.00,52.34398
650.00,52.35570
651.00,52.38300
652.00,52.38600
653.00,52.41827
654.00,52.40368
655.00,52.39138
656.00,52.40211
657.00,52.39183
658.00,52.37749
659.00,52.38027
660.00,52.37761
661.00,52.41425
662.00,52.38584
663.00,52.40962
664.00,52.38288
665.00,52.40428
666.00,52.37396
667.00,52.35950
668.00,52.38597
669.00,52.31867
670.00,52.34386
671.00,52.31909
672.00,52.30992
673.00,52.32564
674.00,52.26265
675.00,52.29647
676.00,52.28737
677.00,52.26849
678.00,52.30402
679.00,52.24715
680.00,52.23410
681.00,52.24223
682.00,52.21954
683.00,52.23225
684.00,52.18834
685.00,52.19060
686.00,52.15324
687.00,52.16379
688.00,52.13154
689.00,52.13670
690.00,52.14146
691.00,52.08233
692.00,52.10391
693.00,52.07154
694.00,52.08518
695.00,52.12569
696.00,52.02658
697.00,52.05820
698.00,52.02869
699.00,52.03544
700.00,51.97026
701.00,51.97180
702.00,51.99335
703.00,51.96672
704.00,51.92980
705.00,51.94792
706.00,51.92972
707.00,51.93280
708.00,51.89512
709.00,51.81853
710.00,51.87040
711.00,51.90734
712.00,51.89664
713.00,51.89331
714.00,51.85867
715.00,51.85538
716.00,51.88340
717.00,51.79471
718.00,51.81749
719.00,51.86167
720.00,51.80582
721.00,51.78183
722.00,51.76414
723.00,51.80976
724.00,51.75058
725.00,51.70055
726.00,51.81745
727.00,51.78909
728.00,51.81921
729.00,51.82731
730.00,51.82403
731.00,51.79566
732.00,51.80130
733.00,51.78801
734.00,51.81918
735.00,51.74063
736.00,51.78837
737.00,51.78403
738.00,51.75582
739.00,51.75768
740.00,51.78131
741.00,51.80438
742.00,51.83613
743.00,51.86058
744.00,51.84726
745.00,51.89001
746.00,51.84807
747.00,51.84606
748.00,51.80844
749.00,51.87440
750.00,51.85906
751.00,51.82739
752.00,51.92204
753.00,51.78146
754.00,51.84716
755.00,51.85776
756.00,51.93834
757.00,51.89548
758.00,51.92317
759.00,51.96986
760.00,51.87614
761.00,51.97613
762.00,51.99183
763.00,52.00354
764.00,51.98926
765.00,52.09875
766.00,52.01870
767.00,52.05376
768.00,52.03661
769.00,52.10599
770.00,52.12557
771.00,52.08083
772.00,52.15011
773.00,52.11312
774.00,52.10999
775.00,52.22204
776.00,52.18715
777.00,52.28046
778.00,52.25464
779.00,52.34359
780.00,52.37390
781.00,52.32474
782.00,52.41987
783.00,52.24491
784.00,52.39393
785.00,52.43841
786.00,52.40787
787.00,52.53742
788.00,52.58414
789.00,52.51500
790.00,52.57947
791.00,52.44547
792.00,52.57131
793.00,52.66207
794.00,52.65614
795.00,52.70883
796.00,52.81084
797.00,52.77323
798.00,52.83878
799.00,52.76132
800.00,52.70746
801.00,52.91840
802.00,52.92211
803.00,52.91029
804.00,53.03498
805.00,52.94451
806.00,52.92270
807.00,53.14210
808.00,53.16773
809.00,53.11965
810.00,53.21522
811.00,53.17885
812.00,53.22396
813.00,53.20098
814.00,53.32254
815.00,53.35068
816.00,53.44511
817.00,53.39264
818.00,53.38384
819.00,53.31025
820.00,53.57932
821.00,53.63854
822.00,53.47620
823.00,53.79725
824.00,53.62249
825.00,53.64088
826.00,53.68401
827.00,53.68625
828.00,53.76539
829.00,53.85572
830.00,53.73152
831.00,53.81683
832.00,53.94343
833.00,54.15348
834.00,54.01909
835.00,54.01955
836.00,54.18484
837.00,54.24826
838.00,53.81393
839.00,54.08024
840.00,54.30260
841.00,54.09615
842.00,54.14332
843.00,54.45561
844.00,54.59146
845.00,54.56653
846.00,54.81882
847.00,54.65850
848.00,54.49980
849.00,54.59463
850.00,54.24533
851.00,54.65299
852.00,54.82097
853.00,55.15235
854.00,55.55378
855.00,54.19884
856.00,54.18766
857.00,54.88712
858.00,53.71815
859.00,55.82944
860.00,54.12775
861.00,54.38018
862.00,55.05265
863.00,54.82005
864.00,54.92644
865.00,54.87591
866.00,56.75625
867.00,56.09355
868.00,55.47811
869.00,54.71295
870.00,54.98139
871.00,55.24685
872.00,56.13630
873.00,52.62671
874.00,55.64854
875.00,58.31696
876.00,57.11380
877.00,55.70334
878.00,55.50015
879.00,53.01390
880.00,54.83726
881.00,53.61651
882.00,55.68705
883.00,53.52540
884.00,58.67997
885.00,55.22296
886.00,53.87561
887.00,53.89771
888.00,54.85041
889.00,55.80128
890.00,52.32608
891.00,58.55707
892.00,54.31921
893.00,54.14039
894.00,55.15795
895.00,53.69753
896.00,51.38022
897.00,57.37916
898.00,57.12409
899.00,54.63473
900.00,56.56294
