"MN1534StockMasked2 - RawData"
"Wavelength nm.","T%"
200.00,0.32241
201.00,0.26904
202.00,0.20865
203.00,0.21671
204.00,0.26337
205.00,0.20239
206.00,0.11037
207.00,0.16921
208.00,0.14768
209.00,0.12995
210.00,0.13907
211.00,0.12334
212.00,0.11233
213.00,0.11210
214.00,0.12396
215.00,0.11330
216.00,0.09370
217.00,0.10413
218.00,0.08906
219.00,0.09003
220.00,0.10613
221.00,0.08908
222.00,0.10751
223.00,0.08279
224.00,0.09180
225.00,0.07708
226.00,0.10832
227.00,0.09210
228.00,0.09638
229.00,0.08865
230.00,0.09075
231.00,0.09868
232.00,0.11361
233.00,0.14554
234.00,0.33097
235.00,0.80244
236.00,1.79885
237.00,3.88039
238.00,7.39586
239.00,12.52293
240.00,18.66011
241.00,26.02975
242.00,33.09388
243.00,39.56583
244.00,45.01405
245.00,49.68176
246.00,52.50280
247.00,55.27969
248.00,56.69599
249.00,57.81132
250.00,59.13318
251.00,59.47020
252.00,60.24927
253.00,60.40164
254.00,61.15925
255.00,61.45575
256.00,61.70288
257.00,61.99147
258.00,62.23379
259.00,62.47141
260.00,62.67000
261.00,62.95239
262.00,62.84397
263.00,63.23334
264.00,63.35045
265.00,63.58739
266.00,63.51639
267.00,63.62566
268.00,63.67192
269.00,63.71524
270.00,63.84915
271.00,64.01786
272.00,64.12417
273.00,63.83380
274.00,63.77376
275.00,64.05619
276.00,64.16338
277.00,64.35805
278.00,64.16990
279.00,64.57045
280.00,64.32268
281.00,64.40541
282.00,64.57754
283.00,64.68854
284.00,64.97264
285.00,64.96569
286.00,64.92280
287.00,64.96320
288.00,65.07323
289.00,65.33545
290.00,65.43097
291.00,65.52832
292.00,65.86431
293.00,66.05628
294.00,66.05452
295.00,66.18081
296.00,66.18047
297.00,65.97908
298.00,66.34862
299.00,66.44710
300.00,66.33619
301.00,66.43288
302.00,66.62709
303.00,66.56782
304.00,66.86308
305.00,66.77763
306.00,66.87454
307.00,66.59339
308.00,66.85330
309.00,66.76378
310.00,67.21241
311.00,67.40951
312.00,66.83248
313.00,66.89320
314.00,67.20886
315.00,67.17086
316.00,67.03978
317.00,66.98521
318.00,67.29645
319.00,67.14365
320.00,67.49001
321.00,67.48930
322.00,67.37926
323.00,67.59861
324.00,67.81904
325.00,67.62285
326.00,67.73393
327.00,67.74275
328.00,67.43886
329.00,67.93495
330.00,67.78288
331.00,67.45071
332.00,67.63901
333.00,68.04063
334.00,68.03185
335.00,68.09838
336.00,67.72402
337.00,67.85403
338.00,67.87183
339.00,67.89008
340.00,67.93495
341.00,67.66592
342.00,67.90860
343.00,68.07413
344.00,68.04916
345.00,68.13872
346.00,68.09069
347.00,68.29668
348.00,68.27784
349.00,68.68373
350.00,68.46442
351.00,68.08813
352.00,68.17008
353.00,68.22670
354.00,68.17022
355.00,68.12482
356.00,68.18425
357.00,68.25368
358.00,68.67785
359.00,68.67980
360.00,68.57558
361.00,68.73103
362.00,68.83204
363.00,68.91934
364.00,68.63666
365.00,68.57826
366.00,68.68985
367.00,68.45084
368.00,68.33308
369.00,68.40961
370.00,68.30679
371.00,68.75957
372.00,68.58074
373.00,68.79916
374.00,69.12519
375.00,69.11247
376.00,69.11879
377.00,69.03675
378.00,69.11103
379.00,69.01800
380.00,68.93115
381.00,68.81670
382.00,68.83961
383.00,68.67074
384.00,68.70510
385.00,68.59401
386.00,68.67723
387.00,68.95950
388.00,69.11032
389.00,69.00634
390.00,69.31080
391.00,69.36266
392.00,69.47039
393.00,69.46675
394.00,69.46896
395.00,69.26831
396.00,69.32446
397.00,69.22138
398.00,69.02802
399.00,69.04765
400.00,68.96365
401.00,68.86094
402.00,68.90167
403.00,68.92708
404.00,69.12611
405.00,69.11656
406.00,69.26877
407.00,69.39559
408.00,69.53045
409.00,69.59980
410.00,69.66880
411.00,69.72374
412.00,69.63102
413.00,69.65731
414.00,69.62473
415.00,69.51342
416.00,69.34803
417.00,69.27424
418.00,69.23708
419.00,69.25956
420.00,69.20986
421.00,69.14120
422.00,69.28650
423.00,69.24049
424.00,69.37860
425.00,69.50401
426.00,69.65956
427.00,69.77962
428.00,69.80940
429.00,69.87374
430.00,69.97077
431.00,69.90661
432.00,69.94289
433.00,69.93210
434.00,69.80507
435.00,69.85047
436.00,69.71129
437.00,69.63930
438.00,69.63762
439.00,69.48585
440.00,69.63333
441.00,69.56466
442.00,69.48794
443.00,69.53815
444.00,69.62022
445.00,69.69305
446.00,69.69447
447.00,69.78760
448.00,69.91570
449.00,69.99732
450.00,70.06286
451.00,70.13062
452.00,70.24408
453.00,70.18201
454.00,70.15938
455.00,70.10032
456.00,70.03046
457.00,70.01275
458.00,69.94350
459.00,69.95057
460.00,69.84593
461.00,69.88774
462.00,69.72278
463.00,69.72573
464.00,69.68606
465.00,69.77106
466.00,69.73452
467.00,69.81632
468.00,69.84197
469.00,69.93368
470.00,70.06016
471.00,70.18732
472.00,70.24810
473.00,70.28844
474.00,70.31362
475.00,70.41603
476.00,70.43641
477.00,70.38592
478.00,70.41857
479.00,70.37537
480.00,70.38479
481.00,70.32205
482.00,70.33212
483.00,70.18883
484.00,70.01917
485.00,69.99304
486.00,69.99267
487.00,69.88249
488.00,69.82328
489.00,69.74837
490.00,69.82229
491.00,69.79918
492.00,69.86779
493.00,69.85883
494.00,70.00883
495.00,70.00353
496.00,70.05436
497.00,70.18017
498.00,70.21737
499.00,70.34881
500.00,70.39331
501.00,70.41157
502.00,70.43830
503.00,70.55913
504.00,70.49937
505.00,70.56259
506.00,70.48995
507.00,70.54150
508.00,70.54570
509.00,70.42147
510.00,70.39734
511.00,70.33880
512.00,70.33339
513.00,70.27884
514.00,70.18410
515.00,70.12086
516.00,70.01021
517.00,70.10221
518.00,70.01067
519.00,70.02323
520.00,70.11580
521.00,70.06443
522.00,70.15068
523.00,70.24948
524.00,70.17387
525.00,70.27567
526.00,70.30368
527.00,70.43201
528.00,70.52738
529.00,70.60699
530.00,70.70282
531.00,70.84841
532.00,70.65177
533.00,70.78523
534.00,70.74898
535.00,70.90500
536.00,70.86697
537.00,70.79279
538.00,70.81134
539.00,70.69529
540.00,70.71664
541.00,70.64003
542.00,70.55963
543.00,70.56626
544.00,70.56109
545.00,70.47254
546.00,70.43022
547.00,70.41762
548.00,70.36833
549.00,70.28881
550.00,70.35806
551.00,70.15914
552.00,70.24084
553.00,70.24614
554.00,70.37956
555.00,70.29330
556.00,70.31038
557.00,70.45179
558.00,70.53832
559.00,70.59425
560.00,70.66933
561.00,70.73543
562.00,70.75964
563.00,70.88510
564.00,70.92358
565.00,71.05305
566.00,71.08045
567.00,71.04167
568.00,71.11340
569.00,71.10578
570.00,71.13315
571.00,71.16271
572.00,71.20620
573.00,71.16433
574.00,71.12839
575.00,71.16343
576.00,70.98593
577.00,71.03792
578.00,70.96984
579.00,70.87224
580.00,70.83058
581.00,70.82794
582.00,70.76939
583.00,70.74805
584.00,70.65971
585.00,70.61199
586.00,70.50779
587.00,70.54945
588.00,70.47275
589.00,70.44843
590.00,70.50058
591.00,70.46968
592.00,70.52071
593.00,70.56141
594.00,70.57303
595.00,70.60313
596.00,70.73616
597.00,70.73050
598.00,70.93306
599.00,70.88535
600.00,71.06219
601.00,71.01348
602.00,71.19541
603.00,71.26155
604.00,71.27628
605.00,71.36414
606.00,71.53484
607.00,71.52426
608.00,71.54658
609.00,71.58067
610.00,71.65667
611.00,71.69186
612.00,71.63966
613.00,71.70293
614.00,71.69020
615.00,71.57360
616.00,71.61827
617.00,71.48157
618.00,71.48816
619.00,71.36877
620.00,71.33836
621.00,71.24627
622.00,71.24464
623.00,71.15352
624.00,71.05064
625.00,71.00829
626.00,70.87723
627.00,70.85994
628.00,70.81316
629.00,70.75000
630.00,70.74668
631.00,70.75821
632.00,70.71905
633.00,70.68859
634.00,70.66928
635.00,70.66919
636.00,70.74060
637.00,70.74385
638.00,70.79350
639.00,70.87694
640.00,70.79598
641.00,70.96885
642.00,71.03897
643.00,71.10035
644.00,71.18230
645.00,71.28103
646.00,71.32004
647.00,71.40622
648.00,71.41650
649.00,71.70374
650.00,71.76077
651.00,71.73103
652.00,71.88184
653.00,71.87277
654.00,71.78839
655.00,71.97739
656.00,72.09356
657.00,72.05601
658.00,72.23768
659.00,72.16147
660.00,72.12933
661.00,72.17513
662.00,72.04168
663.00,72.17919
664.00,72.09432
665.00,72.11118
666.00,72.00270
667.00,72.00187
668.00,71.85631
669.00,71.88984
670.00,71.87546
671.00,71.67138
672.00,71.59214
673.00,71.65228
674.00,71.49837
675.00,71.42029
676.00,71.24946
677.00,71.24779
678.00,71.16835
679.00,71.19951
680.00,71.03485
681.00,70.97171
682.00,70.87242
683.00,70.95520
684.00,70.81621
685.00,70.98041
686.00,70.89564
687.00,70.89534
688.00,70.90414
689.00,70.98583
690.00,70.85403
691.00,71.02825
692.00,71.03245
693.00,71.03344
694.00,71.13485
695.00,71.28887
696.00,71.30316
697.00,71.60653
698.00,71.55383
699.00,71.63960
700.00,71.67917
701.00,71.80526
702.00,71.91408
703.00,71.90273
704.00,71.96534
705.00,72.08297
706.00,72.17820
707.00,72.34112
708.00,72.31575
709.00,72.48396
710.00,72.44183
711.00,72.60582
712.00,72.58290
713.00,72.85077
714.00,72.71475
715.00,72.79507
716.00,72.81950
717.00,73.02237
718.00,72.67510
719.00,72.94068
720.00,72.68736
721.00,72.81317
722.00,72.70540
723.00,72.59043
724.00,72.38588
725.00,72.51377
726.00,72.59066
727.00,72.36531
728.00,72.43031
729.00,72.17282
730.00,72.26202
731.00,72.00699
732.00,72.10983
733.00,71.98975
734.00,72.02178
735.00,71.74979
736.00,71.91187
737.00,71.69654
738.00,71.72337
739.00,71.63265
740.00,71.32791
741.00,71.52591
742.00,71.41230
743.00,71.29499
744.00,71.17441
745.00,71.39651
746.00,71.20738
747.00,71.35419
748.00,71.14618
749.00,71.28701
750.00,71.38367
751.00,71.40175
752.00,71.23584
753.00,71.08881
754.00,71.13574
755.00,71.07580
756.00,71.37855
757.00,71.42841
758.00,71.59250
759.00,71.82746
760.00,71.52480
761.00,71.71142
762.00,71.80418
763.00,71.74101
764.00,71.90245
765.00,72.32966
766.00,71.98800
767.00,72.37434
768.00,72.35708
769.00,72.19226
770.00,72.62042
771.00,72.69216
772.00,72.60037
773.00,73.05496
774.00,73.18197
775.00,72.87093
776.00,72.89793
777.00,72.96388
778.00,72.92803
779.00,73.18342
780.00,73.15909
781.00,73.14947
782.00,73.04164
783.00,73.55496
784.00,73.22620
785.00,73.37949
786.00,73.38137
787.00,73.44969
788.00,73.14493
789.00,73.53337
790.00,73.29785
791.00,73.68635
792.00,73.77037
793.00,73.12409
794.00,73.05435
795.00,73.20812
796.00,73.33317
797.00,73.13401
798.00,72.99833
799.00,72.51792
800.00,73.00625
