"GaN Hres Vslow - RawData"
"Wavelength nm.","R%"
200.00,0.06032
200.20,0.05131
200.40,0.04614
200.60,0.05136
200.80,0.04524
201.00,0.03996
201.20,0.04221
201.40,0.04261
201.60,0.02996
201.80,0.03034
202.00,0.03230
202.20,0.03793
202.40,0.04155
202.60,0.04422
202.80,0.04068
203.00,0.03398
203.20,0.03459
203.40,0.03878
203.60,0.04021
203.80,0.04097
204.00,0.04607
204.20,0.03943
204.40,0.03395
204.60,0.03225
204.80,0.03505
205.00,0.03167
205.20,0.03317
205.40,0.03355
205.60,0.03277
205.80,0.03255
206.00,0.03011
206.20,0.03160
206.40,0.03206
206.60,0.03841
206.80,0.03918
207.00,0.04362
207.20,0.04060
207.40,0.04048
207.60,0.04059
207.80,0.03859
208.00,0.03622
208.20,0.03920
208.40,0.04109
208.60,0.03794
208.80,0.04334
209.00,0.04316
209.20,0.04492
209.40,0.04102
209.60,0.03909
209.80,0.03568
210.00,0.03921
210.20,0.03684
210.40,0.03794
210.60,0.03869
210.80,0.03920
211.00,0.04183
211.20,0.04459
211.40,0.04721
211.60,0.05020
211.80,0.05167
212.00,0.04942
212.20,0.04643
212.40,0.04715
212.60,0.04322
212.80,0.04545
213.00,0.04648
213.20,0.04955
213.40,0.04616
213.60,0.04686
213.80,0.04366
214.00,0.04189
214.20,0.04136
214.40,0.03908
214.60,0.04157
214.80,0.03891
215.00,0.04006
215.20,0.03923
215.40,0.03922
215.60,0.03805
215.80,0.04291
216.00,0.04337
216.20,0.05022
216.40,0.05567
216.60,0.06041
216.80,0.06056
217.00,0.06214
217.20,0.05910
217.40,0.06044
217.60,0.06103
217.80,0.06203
218.00,0.06238
218.20,0.05939
218.40,0.06000
218.60,0.05677
218.80,0.05583
219.00,0.05694
219.20,0.06523
219.40,0.06492
219.60,0.06699
219.80,0.07077
220.00,0.07265
220.20,0.07107
220.40,0.07082
220.60,0.07719
220.80,0.07672
221.00,0.07537
221.20,0.07574
221.40,0.07742
221.60,0.07294
221.80,0.07457
222.00,0.07749
222.20,0.07600
222.40,0.07575
222.60,0.07861
222.80,0.07989
223.00,0.08325
223.20,0.08711
223.40,0.09082
223.60,0.08964
223.80,0.09145
224.00,0.09160
224.20,0.09138
224.40,0.09115
224.60,0.09087
224.80,0.09106
225.00,0.08948
225.20,0.09176
225.40,0.09266
225.60,0.09483
225.80,0.09516
226.00,0.09594
226.20,0.09651
226.40,0.09673
226.60,0.10059
226.80,0.10225
227.00,0.10476
227.20,0.10943
227.40,0.10920
227.60,0.10682
227.80,0.10728
228.00,0.10945
228.20,0.10396
228.40,0.10703
228.60,0.10759
228.80,0.10887
229.00,0.10392
229.20,0.10455
229.40,0.10456
229.60,0.10715
229.80,0.10750
230.00,0.11230
230.20,0.11434
230.40,0.11382
230.60,0.11321
230.80,0.11225
231.00,0.11203
231.20,0.11283
231.40,0.11392
231.60,0.11216
231.80,0.11314
232.00,0.11468
232.20,0.11463
232.40,0.11670
232.60,0.11711
232.80,0.11915
233.00,0.12150
233.20,0.12138
233.40,0.11820
233.60,0.12044
233.80,0.11857
234.00,0.11461
234.20,0.11436
234.40,0.11495
234.60,0.11757
234.80,0.11701
235.00,0.11604
235.20,0.11323
235.40,0.11556
235.60,0.11362
235.80,0.11530
236.00,0.11646
236.20,0.12142
236.40,0.12025
236.60,0.11885
236.80,0.11773
237.00,0.11541
237.20,0.11377
237.40,0.11366
237.60,0.11385
237.80,0.11440
238.00,0.11562
238.20,0.11393
238.40,0.11321
238.60,0.11283
238.80,0.11121
239.00,0.11081
239.20,0.11119
239.40,0.11208
239.60,0.10962
239.80,0.10762
240.00,0.10815
240.20,0.10674
240.40,0.10464
240.60,0.10451
240.80,0.10528
241.00,0.10544
241.20,0.10619
241.40,0.10641
241.60,0.10804
241.80,0.10792
242.00,0.10808
242.20,0.10648
242.40,0.10550
242.60,0.10660
242.80,0.10728
243.00,0.10586
243.20,0.10690
243.40,0.10697
243.60,0.10545
243.80,0.10566
244.00,0.10551
244.20,0.10274
244.40,0.10252
244.60,0.10173
244.80,0.10171
245.00,0.10130
245.20,0.10396
245.40,0.10302
245.60,0.10289
245.80,0.10100
246.00,0.09875
246.20,0.09786
246.40,0.09722
246.60,0.09712
246.80,0.09607
247.00,0.09698
247.20,0.09615
247.40,0.09603
247.60,0.09480
247.80,0.09644
248.00,0.09592
248.20,0.09536
248.40,0.09637
248.60,0.09660
248.80,0.09509
249.00,0.09346
249.20,0.09288
249.40,0.09010
249.60,0.08897
249.80,0.08846
250.00,0.09046
250.20,0.09103
250.40,0.09141
250.60,0.09022
250.80,0.09088
251.00,0.08948
251.20,0.08920
251.40,0.08934
251.60,0.09079
251.80,0.08909
252.00,0.08869
252.20,0.08801
252.40,0.08747
252.60,0.08625
252.80,0.08692
253.00,0.08688
253.20,0.08609
253.40,0.08572
253.60,0.08624
253.80,0.08489
254.00,0.08327
254.20,0.08353
254.40,0.08291
254.60,0.08259
254.80,0.08297
255.00,0.08368
255.20,0.08254
255.40,0.08320
255.60,0.08307
255.80,0.08296
256.00,0.08289
256.20,0.08275
256.40,0.08078
256.60,0.07980
256.80,0.07898
257.00,0.07858
257.20,0.07810
257.40,0.07768
257.60,0.07644
257.80,0.07653
258.00,0.07655
258.20,0.07762
258.40,0.07974
258.60,0.08039
258.80,0.07928
259.00,0.07863
259.20,0.07755
259.40,0.07617
259.60,0.07635
259.80,0.07669
260.00,0.07768
260.20,0.07608
260.40,0.07691
260.60,0.07579
260.80,0.07578
261.00,0.07363
261.20,0.07497
261.40,0.07300
261.60,0.07358
261.80,0.07356
262.00,0.07460
262.20,0.07387
262.40,0.07465
262.60,0.07453
262.80,0.07354
263.00,0.07214
263.20,0.07144
263.40,0.07186
263.60,0.07172
263.80,0.07276
264.00,0.07322
264.20,0.07307
264.40,0.07224
264.60,0.07178
264.80,0.07156
265.00,0.07102
265.20,0.07212
265.40,0.07284
265.60,0.07157
265.80,0.07098
266.00,0.07177
266.20,0.07068
266.40,0.06958
266.60,0.07016
266.80,0.07025
267.00,0.06964
267.20,0.07006
267.40,0.07060
267.60,0.07044
267.80,0.06902
268.00,0.06879
268.20,0.06968
268.40,0.07009
268.60,0.06991
268.80,0.07122
269.00,0.07137
269.20,0.07032
269.40,0.06886
269.60,0.06916
269.80,0.06979
270.00,0.06948
270.20,0.06972
270.40,0.06983
270.60,0.06994
270.80,0.06874
271.00,0.06831
271.20,0.06651
271.40,0.06639
271.60,0.06662
271.80,0.06676
272.00,0.06772
272.20,0.06904
272.40,0.06939
272.60,0.06910
272.80,0.06864
273.00,0.06826
273.20,0.06750
273.40,0.06749
273.60,0.06775
273.80,0.06793
274.00,0.06751
274.20,0.06873
274.40,0.06806
274.60,0.06664
274.80,0.06684
275.00,0.06667
275.20,0.06540
275.40,0.06455
275.60,0.06503
275.80,0.06475
276.00,0.06546
276.20,0.06646
276.40,0.06744
276.60,0.06723
276.80,0.06857
277.00,0.06695
277.20,0.06543
277.40,0.06487
277.60,0.06419
277.80,0.06314
278.00,0.06465
278.20,0.06473
278.40,0.06536
278.60,0.06478
278.80,0.06443
279.00,0.06357
279.20,0.06405
279.40,0.06174
279.60,0.06290
279.80,0.06232
280.00,0.06177
280.20,0.06043
280.40,0.06286
280.60,0.06261
280.80,0.06174
281.00,0.06213
281.20,0.06318
281.40,0.06180
281.60,0.06137
281.80,0.06190
282.00,0.06180
282.20,0.05983
282.40,0.06011
282.60,0.06044
282.80,0.05857
283.00,0.05679
283.20,0.05683
283.40,0.05646
283.60,0.05503
283.80,0.05643
284.00,0.05698
284.20,0.05778
284.40,0.05790
284.60,0.05972
284.80,0.05976
285.00,0.05994
285.20,0.05881
285.40,0.05777
285.60,0.05582
285.80,0.05407
286.00,0.05343
286.20,0.05406
286.40,0.05354
286.60,0.05438
286.80,0.05430
287.00,0.05415
287.20,0.05347
287.40,0.05407
287.60,0.05231
287.80,0.05177
288.00,0.04982
288.20,0.04932
288.40,0.04790
288.60,0.04874
288.80,0.04821
289.00,0.04898
289.20,0.04963
289.40,0.04862
289.60,0.04751
289.80,0.04767
290.00,0.04840
290.20,0.04668
290.40,0.04754
290.60,0.04800
290.80,0.04784
291.00,0.04715
291.20,0.04715
291.40,0.04763
291.60,0.04719
291.80,0.04722
292.00,0.04600
292.20,0.04584
292.40,0.04466
292.60,0.04376
292.80,0.04385
293.00,0.04440
293.20,0.04364
293.40,0.04255
293.60,0.04220
293.80,0.04108
294.00,0.04010
294.20,0.04012
294.40,0.04007
294.60,0.04009
294.80,0.03998
295.00,0.04029
295.20,0.03958
295.40,0.04015
295.60,0.03937
295.80,0.03958
296.00,0.03850
296.20,0.03860
296.40,0.03856
296.60,0.03820
296.80,0.03818
297.00,0.03830
297.20,0.03855
297.40,0.03803
297.60,0.03898
297.80,0.03811
298.00,0.03860
298.20,0.03882
298.40,0.03784
298.60,0.03750
298.80,0.03758
299.00,0.03715
299.20,0.03665
299.40,0.03700
299.60,0.03580
299.80,0.03573
300.00,0.03512
300.20,0.03580
300.40,0.03555
300.60,0.03599
300.80,0.03531
301.00,0.03696
301.20,0.03592
301.40,0.03588
301.60,0.03481
301.80,0.03502
302.00,0.03286
302.20,0.03175
302.40,0.03198
302.60,0.03347
302.80,0.03352
303.00,0.03375
303.20,0.03439
303.40,0.03419
303.60,0.03349
303.80,0.03300
304.00,0.03300
304.20,0.03317
304.40,0.03335
304.60,0.03223
304.80,0.03012
305.00,0.02798
305.20,0.02619
305.40,0.02287
305.60,0.02086
305.80,0.02058
306.00,0.02009
306.20,0.01850
306.40,0.01908
306.60,0.01854
306.80,0.01873
307.00,0.01947
307.20,0.01996
307.40,0.01974
307.60,0.02056
307.80,0.02048
308.00,0.01925
308.20,0.01971
308.40,0.01812
308.60,0.01844
308.80,0.01824
309.00,0.01896
309.20,0.01854
309.40,0.02058
309.60,0.02054
309.80,0.02065
310.00,0.01960
310.20,0.02010
310.40,0.01972
310.60,0.01935
310.80,0.01854
311.00,0.02008
311.20,0.02080
311.40,0.02053
311.60,0.02056
311.80,0.02167
312.00,0.02074
312.20,0.01983
312.40,0.02019
312.60,0.02003
312.80,0.01965
313.00,0.02024
313.20,0.02012
313.40,0.01958
313.60,0.01933
313.80,0.01888
314.00,0.01858
314.20,0.01821
314.40,0.01778
314.60,0.01805
314.80,0.01774
315.00,0.01726
315.20,0.01816
315.40,0.01912
315.60,0.01950
315.80,0.01884
316.00,0.01971
316.20,0.01935
316.40,0.01892
316.60,0.01854
316.80,0.01964
317.00,0.01910
317.20,0.01863
317.40,0.01834
317.60,0.01821
317.80,0.01776
318.00,0.01739
318.20,0.01668
318.40,0.01590
318.60,0.01520
318.80,0.01529
319.00,0.01464
319.20,0.01458
319.40,0.01457
319.60,0.01552
319.80,0.01517
320.00,0.01487
320.20,0.01533
320.40,0.01594
320.60,0.01506
320.80,0.01564
321.00,0.01702
321.20,0.01584
321.40,0.01573
321.60,0.01545
321.80,0.01530
322.00,0.01442
322.20,0.01647
322.40,0.01674
322.60,0.01814
322.80,0.01763
323.00,0.01687
323.20,0.01537
323.40,0.01413
323.60,0.01232
323.80,0.01353
324.00,0.01441
324.20,0.01481
324.40,0.01574
324.60,0.01814
324.80,0.01764
325.00,0.01757
325.20,0.01854
325.40,0.01969
325.60,0.01984
325.80,0.02051
326.00,0.02123
326.20,0.02126
326.40,0.02071
326.60,0.01933
326.80,0.01858
327.00,0.01798
327.20,0.01856
327.40,0.01945
327.60,0.02004
327.80,0.02078
328.00,0.02184
328.20,0.02253
328.40,0.02249
328.60,0.02350
328.80,0.02362
329.00,0.02463
329.20,0.02379
329.40,0.02371
329.60,0.02311
329.80,0.02350
330.00,0.02303
330.20,0.02304
330.40,0.02224
330.60,0.02269
330.80,0.02239
331.00,0.02321
331.20,0.02338
331.40,0.02507
331.60,0.02567
331.80,0.02590
332.00,0.02500
332.20,0.02460
332.40,0.02468
332.60,0.02420
332.80,0.02499
333.00,0.02431
333.20,0.02605
333.40,0.02550
333.60,0.02543
333.80,0.02473
334.00,0.02590
334.20,0.02485
334.40,0.02631
334.60,0.02678
334.80,0.02758
335.00,0.02810
335.20,0.02894
335.40,0.02815
335.60,0.02728
335.80,0.02750
336.00,0.02707
336.20,0.02622
336.40,0.02619
336.60,0.02771
336.80,0.02814
337.00,0.02802
337.20,0.02849
337.40,0.02903
337.60,0.02873
337.80,0.02805
338.00,0.02907
338.20,0.02922
338.40,0.02873
338.60,0.02915
338.80,0.02929
339.00,0.02903
339.20,0.02986
339.40,0.03106
339.60,0.03068
339.80,0.03109
340.00,0.03172
340.20,0.03198
340.40,0.03129
340.60,0.03168
340.80,0.03186
341.00,0.03105
341.20,0.03034
341.40,0.03074
341.60,0.03131
341.80,0.03291
342.00,0.03416
342.20,0.03480
342.40,0.03484
342.60,0.03527
342.80,0.03494
343.00,0.03499
343.20,0.03563
343.40,0.03589
343.60,0.03639
343.80,0.03623
344.00,0.03645
344.20,0.03563
344.40,0.03611
344.60,0.03527
344.80,0.03523
345.00,0.03512
345.20,0.03615
345.40,0.03597
345.60,0.03627
345.80,0.03610
346.00,0.03611
346.20,0.03625
346.40,0.03677
346.60,0.03668
346.80,0.03690
347.00,0.03718
347.20,0.03685
347.40,0.03646
347.60,0.03645
347.80,0.03664
348.00,0.03785
348.20,0.03859
348.40,0.03854
348.60,0.03957
348.80,0.03963
349.00,0.03966
349.20,0.03920
349.40,0.03985
349.60,0.03913
349.80,0.03938
350.00,0.03920
350.20,0.03970
350.40,0.03982
350.60,0.04072
350.80,0.04081
351.00,0.04004
351.20,0.03975
351.40,0.03969
351.60,0.03988
351.80,0.04014
352.00,0.04082
352.20,0.04143
352.40,0.04193
352.60,0.04146
352.80,0.04159
353.00,0.04166
353.20,0.04159
353.40,0.04158
353.60,0.04208
353.80,0.04219
354.00,0.04233
354.20,0.04218
354.40,0.04202
354.60,0.04235
354.80,0.04234
355.00,0.04187
355.20,0.04235
355.40,0.04291
355.60,0.04297
355.80,0.04269
356.00,0.04282
356.20,0.04313
356.40,0.04188
356.60,0.04236
356.80,0.04293
357.00,0.04335
357.20,0.04300
357.40,0.04399
357.60,0.04280
357.80,0.04328
358.00,0.04364
358.20,0.04396
358.40,0.04423
358.60,0.04452
358.80,0.04354
359.00,0.04359
359.20,0.04368
359.40,0.04400
359.60,0.04458
359.80,0.04492
360.00,0.04550
360.20,0.04500
360.40,0.04508
360.60,0.04531
360.80,0.04537
361.00,0.04523
361.20,0.04623
361.40,0.04718
361.60,0.05074
361.80,0.06054
362.00,0.07998
362.20,0.11750
362.40,0.18460
362.60,0.29313
362.80,0.46077
363.00,0.70944
363.20,1.06576
363.40,1.54125
363.60,2.15800
363.80,2.92956
364.00,3.86713
364.20,4.97183
364.40,6.26063
364.60,7.73254
364.80,9.36744
365.00,11.15531
365.20,13.03778
365.40,14.98200
365.60,16.96026
365.80,18.94416
366.00,20.88239
366.20,22.78875
366.40,24.67294
366.60,26.52069
366.80,28.34016
367.00,30.18018
367.20,32.02543
367.40,33.83639
367.60,35.61968
367.80,37.31786
368.00,38.86489
368.20,40.26128
368.40,41.49113
368.60,42.52508
368.80,43.47291
369.00,44.38972
369.20,45.31981
369.40,46.33326
369.60,47.49657
369.80,48.77976
370.00,50.13778
370.20,51.48988
370.40,52.78102
370.60,53.83756
370.80,54.61161
371.00,55.07403
371.20,55.20790
371.40,55.08128
371.60,54.82965
371.80,54.57159
372.00,54.43526
372.20,54.58941
372.40,55.00069
372.60,55.73333
372.80,56.71501
373.00,57.84713
373.20,59.02050
373.40,60.11515
373.60,61.02335
373.80,61.62866
374.00,61.85871
374.20,61.70084
374.40,61.23772
374.60,60.47291
374.80,59.52806
375.00,58.55556
375.20,57.63459
375.40,56.86796
375.60,56.40620
375.80,56.27910
376.00,56.53011
376.20,57.12293
376.40,58.03223
376.60,59.16522
376.80,60.43924
377.00,61.71092
377.20,62.92117
377.40,63.91204
377.60,64.60503
377.80,64.93582
378.00,64.90117
378.20,64.47837
378.40,63.75216
378.60,62.76320
378.80,61.63559
379.00,60.44633
379.20,59.32673
379.40,58.33533
379.60,57.56780
379.80,57.05388
380.00,56.86440
380.20,56.99661
380.40,57.46873
380.60,58.23988
380.80,59.27174
381.00,60.47162
381.20,61.77130
381.40,63.09011
381.60,64.32270
381.80,65.42503
382.00,66.29983
382.20,66.90523
382.40,67.15227
382.60,67.09031
382.80,66.68056
383.00,65.98600
383.20,65.00606
383.40,63.87299
383.60,62.62434
383.80,61.34104
384.00,60.12819
384.20,59.06819
384.40,58.22416
384.60,57.64103
384.80,57.36402
385.00,57.37004
385.20,57.68458
385.40,58.28016
385.60,59.10522
385.80,60.13860
386.00,61.35430
386.20,62.66950
386.40,64.00508
386.60,65.31773
386.80,66.51296
387.00,67.50215
387.20,68.25433
387.40,68.69559
387.60,68.82374
387.80,68.62230
388.00,68.12262
388.20,67.35545
388.40,66.38025
388.60,65.25059
388.80,64.03863
389.00,62.76821
389.20,61.53527
389.40,60.40203
389.60,59.40548
389.80,58.61294
390.00,58.08962
390.20,57.81887
390.40,57.85214
390.60,58.16967
390.80,58.73156
391.00,59.54298
391.20,60.55475
391.40,61.73123
391.60,63.03802
391.80,64.40468
392.00,65.75596
392.20,67.02305
392.40,68.13176
392.60,69.02779
392.80,69.68178
393.00,70.03623
393.20,70.08425
393.40,69.80937
393.60,69.24413
393.80,68.42167
394.00,67.40180
394.20,66.24631
394.40,65.02512
394.60,63.78021
394.80,62.54402
395.00,61.39207
395.20,60.37336
395.40,59.50555
395.60,58.83803
395.80,58.40397
396.00,58.22222
396.20,58.26339
396.40,58.55209
396.60,59.05416
396.80,59.77006
397.00,60.62088
397.20,61.64595
397.40,62.78085
397.60,63.99761
397.80,65.24838
398.00,66.51391
398.20,67.71818
398.40,68.80196
398.60,69.72753
398.80,70.46773
399.00,70.96370
399.20,71.18942
399.40,71.17102
399.60,70.89007
399.80,70.34516
400.00,69.59144
400.20,68.66404
400.40,67.57625
400.60,66.41849
400.80,65.21350
401.00,64.00520
401.20,62.85313
401.40,61.79491
401.60,60.82469
401.80,60.01722
402.00,59.38798
402.20,58.92767
402.40,58.67041
402.60,58.60624
402.80,58.74916
403.00,59.07087
403.20,59.57752
403.40,60.23063
403.60,61.06786
403.80,62.01577
404.00,63.08084
404.20,64.22964
404.40,65.42571
404.60,66.60446
404.80,67.74708
405.00,68.81865
405.20,69.78024
405.40,70.63326
405.60,71.31331
405.80,71.81310
406.00,72.09457
406.20,72.14942
406.40,71.94905
406.60,71.54565
406.80,70.93648
407.00,70.13703
407.20,69.19224
407.40,68.12133
407.60,66.98153
407.80,65.78459
408.00,64.61315
408.20,63.46509
408.40,62.40942
408.60,61.44775
408.80,60.64607
409.00,59.97607
409.20,59.48360
409.40,59.17906
409.60,59.03997
409.80,59.08105
410.00,59.31379
410.20,59.71282
410.40,60.27966
410.60,61.01812
410.80,61.87813
411.00,62.86041
411.20,63.95441
411.40,65.11552
411.60,66.30620
411.80,67.49504
412.00,68.65118
412.20,69.71659
412.40,70.67555
412.60,71.50429
412.80,72.17478
413.00,72.63973
413.20,72.91723
413.40,72.96332
413.60,72.77743
413.80,72.39111
414.00,71.81438
414.20,71.04495
414.40,70.13661
414.60,69.11727
414.80,68.00321
415.00,66.86061
415.20,65.72844
415.40,64.62307
415.60,63.56349
415.80,62.59673
416.00,61.72364
416.20,60.96964
416.40,60.34471
416.60,59.88146
416.80,59.56532
417.00,59.40923
417.20,59.42327
417.40,59.60881
417.60,59.95895
417.80,60.45656
418.00,61.09185
418.20,61.84173
418.40,62.70924
418.60,63.66213
418.80,64.68615
419.00,65.76664
419.20,66.87881
419.40,67.97688
419.60,69.05021
419.80,70.07337
420.00,71.00170
420.20,71.82548
420.40,72.51297
420.60,73.04428
420.80,73.42092
421.00,73.60480
421.20,73.59516
421.40,73.40916
421.60,73.02565
421.80,72.47849
422.00,71.77678
422.20,70.94284
422.40,69.99248
422.60,68.97534
422.80,67.89877
423.00,66.81830
423.20,65.75819
423.40,64.73257
423.60,63.76188
423.80,62.86006
424.00,62.05165
424.20,61.33700
424.40,60.75001
424.60,60.28614
424.80,59.96871
425.00,59.78450
425.20,59.73582
425.40,59.82134
425.60,60.04976
425.80,60.40254
426.00,60.89523
426.20,61.49904
426.40,62.21285
426.60,63.01303
426.80,63.89623
427.00,64.83220
427.20,65.82176
427.40,66.83053
427.60,67.85742
427.80,68.86746
428.00,69.84948
428.20,70.79480
428.40,71.65765
428.60,72.42883
428.80,73.08377
429.00,73.59859
429.20,73.95752
429.40,74.17434
429.60,74.21162
429.80,74.08333
430.00,73.80440
430.20,73.35529
430.40,72.76233
430.60,72.04427
430.80,71.23621
431.00,70.33021
431.20,69.38103
431.40,68.40223
431.60,67.40692
431.80,66.40373
432.00,65.42614
432.20,64.48578
432.40,63.59839
432.60,62.79149
432.80,62.07248
433.00,61.45988
433.20,60.95113
433.40,60.55029
433.60,60.27153
433.80,60.10341
434.00,60.05687
434.20,60.12330
434.40,60.31556
434.60,60.62828
434.80,61.04278
435.00,61.56394
435.20,62.20359
435.40,62.92198
435.60,63.71639
435.80,64.60571
436.00,65.55517
436.20,66.53395
436.40,67.53793
436.60,68.56019
436.80,69.55466
437.00,70.50006
437.20,71.40909
437.40,72.25047
437.60,72.99297
437.80,73.61782
438.00,74.12526
438.20,74.48753
438.40,74.68964
438.60,74.72432
438.80,74.59378
439.00,74.30818
439.20,73.86654
439.40,73.29448
439.60,72.58568
439.80,71.77822
440.00,70.89345
440.20,69.93490
440.40,68.95036
440.60,67.96293
440.80,66.99097
441.00,66.02169
441.20,65.11263
441.40,64.24471
441.60,63.44514
441.80,62.72473
442.00,62.10548
442.20,61.55403
442.40,61.11709
442.60,60.78459
442.80,60.54207
443.00,60.40353
443.20,60.37413
443.40,60.44514
443.60,60.61137
443.80,60.88644
444.00,61.26567
444.20,61.74061
444.40,62.30156
444.60,62.95081
444.80,63.68096
445.00,64.47337
445.20,65.32457
445.40,66.22646
445.60,67.16777
445.80,68.13558
446.00,69.09969
446.20,70.05534
446.40,70.97296
446.60,71.82829
446.80,72.61540
447.00,73.33241
447.20,73.93779
447.40,74.44496
447.60,74.82591
447.80,75.06520
448.00,75.17259
448.20,75.16564
448.40,75.00357
448.60,74.73111
448.80,74.33668
449.00,73.82997
449.20,73.21962
449.40,72.53981
449.60,71.78381
449.80,70.96748
450.00,70.09994
450.20,69.21378
450.40,68.31351
450.60,67.42905
450.80,66.56045
451.00,65.73476
451.20,64.93307
451.40,64.18090
451.60,63.47770
451.80,62.86545
452.00,62.30648
452.20,61.83918
452.40,61.44082
452.60,61.11419
452.80,60.86244
453.00,60.71648
453.20,60.65378
453.40,60.69444
453.60,60.84234
453.80,61.08729
454.00,61.42107
454.20,61.84052
454.40,62.34950
454.60,62.93888
454.80,63.59228
455.00,64.30945
455.20,65.08653
455.40,65.90860
455.60,66.75595
455.80,67.64774
456.00,68.56740
456.20,69.49746
456.40,70.40474
456.60,71.30116
456.80,72.13180
457.00,72.89110
457.20,73.58301
457.40,74.18237
457.60,74.68278
457.80,75.08152
458.00,75.36751
458.20,75.53084
458.40,75.58545
458.60,75.51013
458.80,75.32914
459.00,75.03439
459.20,74.61824
459.40,74.10802
459.60,73.50606
459.80,72.80415
460.00,72.03010
460.20,71.20402
460.40,70.32564
460.60,69.43299
460.80,68.54486
461.00,67.67162
461.20,66.81923
461.40,66.01295
461.60,65.22506
461.80,64.48948
462.00,63.79645
462.20,63.16760
462.40,62.59237
462.60,62.11697
462.80,61.70564
463.00,61.38648
463.20,61.14735
463.40,61.00756
463.60,60.92778
463.80,60.95227
464.00,61.06317
464.20,61.26098
464.40,61.53658
464.60,61.90039
464.80,62.34034
465.00,62.84640
465.20,63.41760
465.40,64.03072
465.60,64.71459
465.80,65.44026
466.00,66.20067
466.20,67.00475
466.40,67.84463
466.60,68.68654
466.80,69.53082
467.00,70.37964
467.20,71.19114
467.40,71.97260
467.60,72.71007
467.80,73.38379
468.00,74.00978
468.20,74.56693
468.40,75.03428
468.60,75.41573
468.80,75.70700
469.00,75.87201
469.20,75.93233
469.40,75.90060
469.60,75.77052
469.80,75.52617
470.00,75.18846
470.20,74.75656
470.40,74.24684
470.60,73.64570
470.80,72.99821
471.00,72.28759
471.20,71.53236
471.40,70.73861
471.60,69.93547
471.80,69.12339
472.00,68.31716
472.20,67.52605
472.40,66.76238
472.60,66.02344
472.80,65.31671
473.00,64.65843
473.20,64.05188
473.40,63.48990
473.60,62.98659
473.80,62.53538
474.00,62.15090
474.20,61.82097
474.40,61.56040
474.60,61.36640
474.80,61.25039
475.00,61.19558
475.20,61.21669
475.40,61.30614
475.60,61.46416
475.80,61.68581
476.00,61.97615
476.20,62.33516
476.40,62.74478
476.60,63.22852
476.80,63.75887
477.00,64.33574
477.20,64.96214
477.40,65.63380
477.60,66.33397
477.80,67.07246
478.00,67.82238
478.20,68.60818
478.40,69.40705
478.60,70.20105
478.80,70.97966
479.00,71.75027
479.20,72.47902
479.40,73.16265
479.60,73.79718
479.80,74.37715
480.00,74.88292
480.20,75.31482
480.40,75.67250
480.60,75.95049
480.80,76.15018
481.00,76.26120
481.20,76.26999
481.40,76.18150
481.60,76.00240
481.80,75.72148
482.00,75.36739
482.20,74.93224
482.40,74.41573
482.60,73.84346
482.80,73.21767
483.00,72.52800
483.20,71.80206
483.40,71.05110
483.60,70.26591
483.80,69.46242
484.00,68.66426
484.20,67.86951
484.40,67.10584
484.60,66.35504
484.80,65.64026
485.00,64.97552
485.20,64.34959
485.40,63.77490
485.60,63.27620
485.80,62.82758
486.00,62.43396
486.20,62.11289
486.40,61.84207
486.60,61.64208
486.80,61.51644
487.00,61.45132
487.20,61.45872
487.40,61.52387
487.60,61.65118
487.80,61.83909
488.00,62.09856
488.20,62.39856
488.40,62.76981
488.60,63.17421
488.80,63.63087
489.00,64.12733
489.20,64.67361
489.40,65.25569
489.60,65.88416
489.80,66.54295
490.00,67.23810
490.20,67.94658
490.40,68.68866
490.60,69.43671
490.80,70.19623
491.00,70.93675
491.20,71.67405
491.40,72.37868
491.60,73.05186
491.80,73.67989
492.00,74.26689
492.20,74.80797
492.40,75.27879
492.60,75.68269
492.80,76.01876
493.00,76.27735
493.20,76.45436
493.40,76.55666
493.60,76.57310
493.80,76.51743
494.00,76.38904
494.20,76.17525
494.40,75.89380
494.60,75.54834
494.80,75.13194
495.00,74.65895
495.20,74.13584
495.40,73.56981
495.60,72.95276
495.80,72.31048
496.00,71.63552
496.20,70.95482
496.40,70.25460
496.60,69.55699
496.80,68.85458
497.00,68.16630
497.20,67.49696
497.40,66.84192
497.60,66.21926
497.80,65.62886
498.00,65.06517
498.20,64.52049
498.40,64.01735
498.60,63.56390
498.80,63.14394
499.00,62.77094
499.20,62.45750
499.40,62.19990
499.60,61.97754
499.80,61.82705
500.00,61.73031
500.20,61.68796
500.40,61.69956
500.60,61.77522
500.80,61.89772
501.00,62.08463
501.20,62.30897
501.40,62.59516
501.60,62.92892
501.80,63.32381
502.00,63.75560
502.20,64.23457
502.40,64.76596
502.60,65.33723
502.80,65.93050
503.00,66.55487
503.20,67.22176
503.40,67.89008
503.60,68.56257
503.80,69.24879
504.00,69.94740
504.20,70.63718
504.40,71.32220
504.60,72.00197
504.80,72.65575
505.00,73.27936
505.20,73.87929
505.40,74.44087
505.60,74.96891
505.80,75.43948
506.00,75.85111
506.20,76.19177
506.40,76.46037
506.60,76.64770
506.80,76.77305
507.00,76.82477
507.20,76.81087
507.40,76.71625
507.60,76.55072
507.80,76.31413
508.00,76.00774
508.20,75.62718
508.40,75.19898
508.60,74.71926
508.80,74.18845
509.00,73.60859
509.20,73.00195
509.40,72.36495
509.60,71.70637
509.80,71.04704
510.00,70.38515
510.20,69.71204
510.40,69.03715
510.60,68.37822
510.80,67.71855
511.00,67.08364
511.20,66.48473
511.40,65.91717
511.60,65.37166
511.80,64.86910
512.00,64.39946
512.20,63.95329
512.40,63.55249
512.60,63.19497
512.80,62.87150
513.00,62.59648
513.20,62.37133
513.40,62.19152
513.60,62.05395
513.80,61.96154
514.00,61.91763
514.20,61.91509
514.40,61.96410
514.60,62.05873
514.80,62.20570
515.00,62.39730
515.20,62.64479
515.40,62.91670
515.60,63.24155
515.80,63.59997
516.00,64.00330
516.20,64.43942
516.40,64.93593
516.60,65.47432
516.80,66.04634
517.00,66.63460
517.20,67.24534
517.40,67.85052
517.60,68.46954
517.80,69.10774
518.00,69.75863
518.20,70.40073
518.40,71.04799
518.60,71.67819
518.80,72.28343
519.00,72.86434
519.20,73.43270
519.40,73.97909
519.60,74.49806
519.80,74.97980
520.00,75.42428
520.20,75.83265
520.40,76.18443
520.60,76.48012
520.80,76.71371
521.00,76.90269
521.20,77.01752
521.40,77.08515
521.60,77.08376
521.80,77.03633
522.00,76.91876
522.20,76.75365
522.40,76.52744
522.60,76.24974
522.80,75.92542
523.00,75.54796
523.20,75.11503
523.40,74.64296
523.60,74.12998
523.80,73.58866
524.00,73.03033
524.20,72.44818
524.40,71.84892
524.60,71.24060
524.80,70.61456
525.00,69.97828
525.20,69.34993
525.40,68.73524
525.60,68.13350
525.80,67.55118
526.00,66.97733
526.20,66.43026
526.40,65.89535
526.60,65.38829
526.80,64.91398
527.00,64.47820
527.20,64.07072
527.40,63.71039
527.60,63.37870
527.80,63.08150
528.00,62.82913
528.20,62.61638
528.40,62.43404
528.60,62.30217
528.80,62.21516
529.00,62.16180
529.20,62.15336
529.40,62.19090
529.60,62.26784
529.80,62.39608
530.00,62.56048
530.20,62.77660
530.40,63.02574
530.60,63.33328
530.80,63.65882
531.00,64.03838
531.20,64.44170
531.40,64.88999
531.60,65.35954
531.80,65.85344
532.00,66.37741
532.20,66.92103
532.40,67.48970
532.60,68.06861
532.80,68.67424
533.00,69.28536
533.20,69.89664
533.40,70.50138
533.60,71.10174
533.80,71.69631
534.00,72.28415
534.20,72.86479
534.40,73.42592
534.60,73.96428
534.80,74.47500
535.00,74.93603
535.20,75.37950
535.40,75.78830
535.60,76.15055
535.80,76.46738
536.00,76.75116
536.20,76.97003
536.40,77.13240
536.60,77.24838
536.80,77.31243
537.00,77.31711
537.20,77.27631
537.40,77.17215
537.60,77.02073
537.80,76.81066
538.00,76.55351
538.20,76.24739
538.40,75.89659
538.60,75.49999
538.80,75.08332
539.00,74.62559
539.20,74.14998
539.40,73.64202
539.60,73.11873
539.80,72.56598
540.00,72.00114
540.20,71.42303
540.40,70.85183
540.60,70.28470
540.80,69.71405
541.00,69.15114
541.20,68.58461
541.40,68.03905
541.60,67.49935
541.80,66.98468
542.00,66.48864
542.20,66.02235
542.40,65.57768
542.60,65.15562
542.80,64.76411
543.00,64.40375
543.20,64.06090
543.40,63.73978
543.60,63.45769
543.80,63.19647
544.00,62.97344
544.20,62.79121
544.40,62.64513
544.60,62.52349
544.80,62.44204
545.00,62.39375
545.20,62.37895
545.40,62.40283
545.60,62.45570
545.80,62.55490
546.00,62.68659
546.20,62.85246
546.40,63.05542
546.60,63.30282
546.80,63.58286
547.00,63.88723
547.20,64.22561
547.40,64.58860
547.60,64.98650
547.80,65.39170
548.00,65.82949
548.20,66.29021
548.40,66.77754
548.60,67.27785
548.80,67.81065
549.00,68.36114
549.20,68.91994
549.40,69.49335
549.60,70.06858
549.80,70.63966
550.00,71.20874
550.20,71.78560
550.40,72.34307
550.60,72.89488
550.80,73.42910
551.00,73.94719
551.20,74.43697
551.40,74.90022
551.60,75.34397
551.80,75.74950
552.00,76.12630
552.20,76.46651
552.40,76.77248
552.60,77.01836
552.80,77.22771
553.00,77.37773
553.20,77.47999
553.40,77.52981
553.60,77.52582
553.80,77.47971
554.00,77.38429
554.20,77.23489
554.40,77.04242
554.60,76.81361
554.80,76.54462
555.00,76.23260
555.20,75.88478
555.40,75.49965
555.60,75.07634
555.80,74.61617
556.00,74.14144
556.20,73.64740
556.40,73.13628
556.60,72.61731
556.80,72.08639
557.00,71.55476
557.20,71.01338
557.40,70.48653
557.60,69.95724
557.80,69.44584
558.00,68.92982
558.20,68.42641
558.40,67.91057
558.60,67.42311
558.80,66.94409
559.00,66.48314
559.20,66.04542
559.40,65.63873
559.60,65.24762
559.80,64.87823
560.00,64.53680
560.20,64.21928
560.40,63.92924
560.60,63.66872
560.80,63.42828
561.00,63.21386
561.20,63.03297
561.40,62.88362
561.60,62.76248
561.80,62.67135
562.00,62.62724
562.20,62.60716
562.40,62.60456
562.60,62.63797
562.80,62.71281
563.00,62.80581
563.20,62.92235
563.40,63.07471
563.60,63.25451
563.80,63.45498
564.00,63.68310
564.20,63.93918
564.40,64.23177
564.60,64.54441
564.80,64.87733
565.00,65.23427
565.20,65.61159
565.40,66.00305
565.60,66.40385
565.80,66.82820
566.00,67.26918
566.20,67.72829
566.40,68.20624
566.60,68.69695
566.80,69.20610
567.00,69.71362
567.20,70.22591
567.40,70.73417
567.60,71.26504
567.80,71.78868
568.00,72.30965
568.20,72.82548
568.40,73.33244
568.60,73.80649
568.80,74.25998
569.00,74.69574
569.20,75.11799
569.40,75.51656
569.60,75.88902
569.80,76.23293
570.00,76.55333
570.20,76.82985
570.40,77.07689
570.60,77.29626
570.80,77.47222
571.00,77.60466
571.20,77.71057
571.40,77.77050
571.60,77.78064
571.80,77.75113
572.00,77.68009
572.20,77.56200
572.40,77.39503
572.60,77.19423
572.80,76.96941
573.00,76.70615
573.20,76.39887
573.40,76.06285
573.60,75.70170
573.80,75.29618
574.00,74.86452
574.20,74.41342
574.40,73.93523
574.60,73.44460
574.80,72.93270
575.00,72.41943
575.20,71.90487
575.40,71.39922
575.60,70.87659
575.80,70.37237
576.00,69.85760
576.20,69.34605
576.40,68.85109
576.60,68.36742
576.80,67.90004
577.00,67.45902
577.20,67.02853
577.40,66.60483
577.60,66.20958
577.80,65.81993
578.00,65.45754
578.20,65.11607
578.40,64.79799
578.60,64.50053
578.80,64.22620
579.00,63.96467
579.20,63.74155
579.40,63.54097
579.60,63.36420
579.80,63.21585
580.00,63.09446
580.20,62.99185
580.40,62.91582
580.60,62.86104
580.80,62.83553
581.00,62.83510
581.20,62.86368
581.40,62.91131
581.60,62.98636
581.80,63.08939
582.00,63.21312
582.20,63.35025
582.40,63.52981
582.60,63.73156
582.80,63.95648
583.00,64.20315
583.20,64.47490
583.40,64.76296
583.60,65.07456
583.80,65.40070
584.00,65.74407
584.20,66.11088
584.40,66.48616
584.60,66.87760
584.80,67.27939
585.00,67.70380
585.20,68.13148
585.40,68.58001
585.60,69.03532
585.80,69.50275
586.00,69.96965
586.20,70.44087
586.40,70.90183
586.60,71.36702
586.80,71.83333
587.00,72.30122
587.20,72.76999
587.40,73.23643
587.60,73.69078
587.80,74.13567
588.00,74.55608
588.20,74.96185
588.40,75.34722
588.60,75.71283
588.80,76.05613
589.00,76.38587
589.20,76.68492
589.40,76.95413
589.60,77.19424
589.80,77.40821
590.00,77.58205
590.20,77.72931
590.40,77.84696
590.60,77.92919
590.80,77.96296
591.00,77.96162
591.20,77.92808
591.40,77.86162
591.60,77.75659
591.80,77.61633
592.00,77.44795
592.20,77.23759
592.40,76.99828
592.60,76.73162
592.80,76.44127
593.00,76.11571
593.20,75.78060
593.40,75.41386
593.60,75.02568
593.80,74.63052
594.00,74.21606
594.20,73.78561
594.40,73.34068
594.60,72.89172
594.80,72.41691
595.00,71.94922
595.20,71.47521
595.40,71.00114
595.60,70.52904
595.80,70.07124
596.00,69.61178
596.20,69.16090
596.40,68.70713
596.60,68.26378
596.80,67.83474
597.00,67.43063
597.20,67.02000
597.40,66.64191
597.60,66.26598
597.80,65.91225
598.00,65.56660
598.20,65.25448
598.40,64.95642
598.60,64.69103
598.80,64.43166
599.00,64.20158
599.20,63.97910
599.40,63.79282
599.60,63.61918
599.80,63.46797
600.00,63.33375
600.20,63.23311
600.40,63.14132
600.60,63.09032
600.80,63.06096
601.00,63.04939
601.20,63.06657
601.40,63.10517
601.60,63.15854
601.80,63.22871
602.00,63.32932
602.20,63.44276
602.40,63.57561
602.60,63.73193
602.80,63.91670
603.00,64.12008
603.20,64.33451
603.40,64.57852
603.60,64.83666
603.80,65.11629
604.00,65.40377
604.20,65.72299
604.40,66.04551
604.60,66.38649
604.80,66.74392
605.00,67.12467
605.20,67.51353
605.40,67.92208
605.60,68.33545
605.80,68.75881
606.00,69.19424
606.20,69.63645
606.40,70.07826
606.60,70.51733
606.80,70.96288
607.00,71.39096
607.20,71.82494
607.40,72.25937
607.60,72.69367
607.80,73.11218
608.00,73.53567
608.20,73.94657
608.40,74.34465
608.60,74.73506
608.80,75.11595
609.00,75.47686
609.20,75.82204
609.40,76.14459
609.60,76.44560
609.80,76.72775
610.00,76.99742
610.20,77.23118
610.40,77.44305
610.60,77.63816
610.80,77.80226
611.00,77.93154
611.20,78.03813
611.40,78.12284
611.60,78.16674
611.80,78.18285
612.00,78.17781
612.20,78.15607
612.40,78.09494
612.60,78.00688
612.80,77.89137
613.00,77.74021
613.20,77.55476
613.40,77.35071
613.60,77.11761
613.80,76.86509
614.00,76.58252
614.20,76.27678
614.40,75.95946
614.60,75.62477
614.80,75.26454
615.00,74.90774
615.20,74.53153
615.40,74.13812
615.60,73.73878
615.80,73.32870
616.00,72.90170
616.20,72.47694
616.40,72.03740
616.60,71.59606
616.80,71.17711
617.00,70.74849
617.20,70.32261
617.40,69.91225
617.60,69.49371
617.80,69.06430
618.00,68.64385
618.20,68.22810
618.40,67.82237
618.60,67.44595
618.80,67.07780
619.00,66.73056
619.20,66.40037
619.40,66.07577
619.60,65.75841
619.80,65.46431
620.00,65.18797
620.20,64.92345
620.40,64.68599
620.60,64.45858
620.80,64.26167
621.00,64.07601
621.20,63.92071
621.40,63.78080
621.60,63.66649
621.80,63.55382
622.00,63.47015
622.20,63.39155
622.40,63.33025
622.60,63.30312
622.80,63.28456
623.00,63.28852
623.20,63.32277
623.40,63.37508
623.60,63.42795
623.80,63.51616
624.00,63.61362
624.20,63.72323
624.40,63.85885
624.60,64.02429
624.80,64.19784
625.00,64.39936
625.20,64.61400
625.40,64.83815
625.60,65.07316
625.80,65.32371
626.00,65.58238
626.20,65.85909
626.40,66.14925
626.60,66.45676
626.80,66.77297
627.00,67.10234
627.20,67.44011
627.40,67.78687
627.60,68.13431
627.80,68.50716
628.00,68.88438
628.20,69.27135
628.40,69.67735
628.60,70.08339
628.80,70.48746
629.00,70.88771
629.20,71.29430
629.40,71.69523
629.60,72.10375
629.80,72.50168
630.00,72.90511
630.20,73.29508
630.40,73.68534
630.60,74.07554
630.80,74.45107
631.00,74.81686
631.20,75.17470
631.40,75.51713
631.60,75.82961
631.80,76.14616
632.00,76.44482
632.20,76.72545
632.40,76.97921
632.60,77.23323
632.80,77.45989
633.00,77.65564
633.20,77.83353
633.40,77.99070
633.60,78.11494
633.80,78.21315
634.00,78.29757
634.20,78.35785
634.40,78.38883
634.60,78.41118
634.80,78.39565
635.00,78.34138
635.20,78.26679
635.40,78.16508
635.60,78.03366
635.80,77.88879
636.00,77.73332
636.20,77.53950
636.40,77.33546
636.60,77.09419
636.80,76.83979
637.00,76.55684
637.20,76.26188
637.40,75.94850
637.60,75.62389
637.80,75.28340
638.00,74.94487
638.20,74.59423
638.40,74.22716
638.60,73.85736
638.80,73.46159
639.00,73.06497
639.20,72.66350
639.40,72.26794
639.60,71.86990
639.80,71.47309
640.00,71.07280
640.20,70.65781
640.40,70.24086
640.60,69.81680
640.80,69.42772
641.00,69.04551
641.20,68.67124
641.40,68.31529
641.60,67.97816
641.80,67.63170
642.00,67.29524
642.20,66.98851
642.40,66.68152
642.60,66.38144
642.80,66.10162
643.00,65.82843
643.20,65.57115
643.40,65.32479
643.60,65.10870
643.80,64.88932
644.00,64.69103
644.20,64.50370
644.40,64.33954
644.60,64.17380
644.80,64.03932
645.00,63.91034
645.20,63.80695
645.40,63.71168
645.60,63.63993
645.80,63.58720
646.00,63.55848
646.20,63.53529
646.40,63.53446
646.60,63.54015
646.80,63.54206
647.00,63.57484
647.20,63.62780
647.40,63.69984
647.60,63.79110
647.80,63.90933
648.00,64.02863
648.20,64.16210
648.40,64.30928
648.60,64.47329
648.80,64.65212
649.00,64.84347
649.20,65.03952
649.40,65.24840
649.60,65.47498
649.80,65.71397
650.00,65.97426
650.20,66.23737
650.40,66.51655
650.60,66.80067
650.80,67.09774
651.00,67.39876
651.20,67.72507
651.40,68.05163
651.60,68.37417
651.80,68.71136
652.00,69.06241
652.20,69.41716
652.40,69.77376
652.60,70.14713
652.80,70.50553
653.00,70.85665
653.20,71.21025
653.40,71.56587
653.60,71.92472
653.80,72.28646
654.00,72.65495
654.20,73.00889
654.40,73.36119
654.60,73.72398
654.80,74.08050
655.00,74.42864
655.20,74.78439
655.40,75.12776
655.60,75.44400
655.80,75.76572
656.00,76.06102
656.20,76.34647
656.40,76.62601
656.60,76.88191
656.80,77.10921
657.00,77.34191
657.20,77.56616
657.40,77.75975
657.60,77.93840
657.80,78.11702
658.00,78.24587
658.20,78.36180
658.40,78.45288
658.60,78.53142
658.80,78.57726
659.00,78.62383
659.20,78.62031
659.40,78.60377
659.60,78.55933
659.80,78.49933
660.00,78.42026
660.20,78.31612
660.40,78.21057
660.60,78.07983
660.80,77.91754
661.00,77.73854
661.20,77.55543
661.40,77.33034
661.60,77.09734
661.80,76.84498
662.00,76.56571
662.20,76.27097
662.40,75.97576
662.60,75.66248
662.80,75.34068
663.00,75.01231
663.20,74.67631
663.40,74.32101
663.60,73.96687
663.80,73.60500
664.00,73.24343
664.20,72.87742
664.40,72.52402
664.60,72.16117
664.80,71.80076
665.00,71.44276
665.20,71.09393
665.40,70.73787
665.60,70.39022
665.80,70.04942
666.00,69.68969
666.20,69.33670
666.40,68.98266
666.60,68.65013
666.80,68.32446
667.00,68.02211
667.20,67.71614
667.40,67.43308
667.60,67.15891
667.80,66.87357
668.00,66.60203
668.20,66.33834
668.40,66.08450
668.60,65.83130
668.80,65.61792
669.00,65.41054
669.20,65.22574
669.40,65.05033
669.60,64.86977
669.80,64.70842
670.00,64.55157
670.20,64.41345
670.40,64.27826
670.60,64.17491
670.80,64.08590
671.00,63.99614
671.20,63.91106
671.40,63.85970
671.60,63.80870
671.80,63.74798
672.00,63.74019
672.20,63.73693
672.40,63.73788
672.60,63.75559
672.80,63.79498
673.00,63.83572
673.20,63.89002
673.40,63.94874
673.60,64.03381
673.80,64.13069
674.00,64.22478
674.20,64.33684
674.40,64.47159
674.60,64.60978
674.80,64.76158
675.00,64.92178
675.20,65.09149
675.40,65.28118
675.60,65.46639
675.80,65.67838
676.00,65.90431
676.20,66.15288
676.40,66.38992
676.60,66.65139
676.80,66.90804
677.00,67.17614
677.20,67.45302
677.40,67.75002
677.60,68.05791
677.80,68.35512
678.00,68.66925
678.20,68.98561
678.40,69.29692
678.60,69.61427
678.80,69.96034
679.00,70.30052
679.20,70.62872
679.40,70.97002
679.60,71.31338
679.80,71.65563
680.00,71.99907
680.20,72.35606
680.40,72.72721
680.60,73.08946
680.80,73.43429
681.00,73.78099
681.20,74.11507
681.40,74.43112
681.60,74.74637
681.80,75.07166
682.00,75.37673
682.20,75.66499
682.40,75.96635
682.60,76.26886
682.80,76.54888
683.00,76.83634
683.20,77.11104
683.40,77.34639
683.60,77.54562
683.80,77.74443
684.00,77.90861
684.20,78.08697
684.40,78.23742
684.60,78.37123
684.80,78.48389
685.00,78.59643
685.20,78.66993
685.40,78.72906
685.60,78.79252
685.80,78.83217
686.00,78.82959
686.20,78.81984
686.40,78.81023
686.60,78.75897
686.80,78.66527
687.00,78.60181
687.20,78.50205
687.40,78.36995
687.60,78.22337
687.80,78.09011
688.00,77.92763
688.20,77.74968
688.40,77.55105
688.60,77.36658
688.80,77.15291
689.00,76.90924
689.20,76.66272
689.40,76.41399
689.60,76.13014
689.80,75.85637
690.00,75.56210
690.20,75.26708
690.40,74.97070
690.60,74.66308
690.80,74.35548
691.00,74.04818
691.20,73.74142
691.40,73.41740
691.60,73.08603
691.80,72.75990
692.00,72.43108
692.20,72.08366
692.40,71.74402
692.60,71.43270
692.80,71.11304
693.00,70.79813
693.20,70.49583
693.40,70.19194
693.60,69.87460
693.80,69.56397
694.00,69.26513
694.20,68.96927
694.40,68.69200
694.60,68.42738
694.80,68.15411
695.00,67.87884
695.20,67.60951
695.40,67.35153
695.60,67.08971
695.80,66.83527
696.00,66.59160
696.20,66.36939
696.40,66.15428
696.60,65.95995
696.80,65.76180
697.00,65.58998
697.20,65.41708
697.40,65.23839
697.60,65.07086
697.80,64.93376
698.00,64.78929
698.20,64.66020
698.40,64.55583
698.60,64.44880
698.80,64.35605
699.00,64.28576
699.20,64.22285
699.40,64.15328
699.60,64.10057
699.80,64.05030
700.00,64.01695
700.20,63.97181
700.40,63.96899
700.60,63.97724
700.80,63.99782
701.00,64.00710
701.20,64.04712
701.40,64.08741
701.60,64.14310
701.80,64.19879
702.00,64.29182
702.20,64.39424
702.40,64.48579
702.60,64.58408
702.80,64.71214
703.00,64.84088
703.20,64.98305
703.40,65.14180
703.60,65.32839
703.80,65.51644
704.00,65.69622
704.20,65.88280
704.40,66.10343
704.60,66.31050
704.80,66.52578
705.00,66.76404
705.20,67.00116
705.40,67.24803
705.60,67.50358
705.80,67.77720
706.00,68.04214
706.20,68.34074
706.40,68.63369
706.60,68.93127
706.80,69.22538
707.00,69.52706
707.20,69.82234
707.40,70.11082
707.60,70.40283
707.80,70.69691
708.00,71.02134
708.20,71.33459
708.40,71.64372
708.60,71.96108
708.80,72.27946
709.00,72.60342
709.20,72.90679
709.40,73.23222
709.60,73.54925
709.80,73.85362
710.00,74.12335
710.20,74.45087
710.40,74.73362
710.60,75.02792
710.80,75.33299
711.00,75.63767
711.20,75.91945
711.40,76.19173
711.60,76.44901
711.80,76.71207
712.00,76.93666
712.20,77.15023
712.40,77.36596
712.60,77.57441
712.80,77.75990
713.00,77.95383
713.20,78.12187
713.40,78.27915
713.60,78.42688
713.80,78.54553
714.00,78.67634
714.20,78.77811
714.40,78.87010
714.60,78.92613
714.80,78.99465
715.00,79.02218
715.20,79.03605
715.40,79.06415
715.60,79.08247
715.80,79.05955
716.00,79.03274
716.20,79.00546
716.40,78.93510
716.60,78.85612
716.80,78.76073
717.00,78.65727
717.20,78.53182
717.40,78.40067
717.60,78.26994
717.80,78.12477
718.00,77.96827
718.20,77.79154
718.40,77.59688
718.60,77.40334
718.80,77.20600
719.00,76.98323
719.20,76.76879
719.40,76.53639
719.60,76.25305
719.80,75.99040
720.00,75.72191
720.20,75.43114
720.40,75.18302
720.60,74.93085
720.80,74.65029
721.00,74.36434
721.20,74.08747
721.40,73.76878
721.60,73.46978
721.80,73.17802
722.00,72.88960
722.20,72.61146
722.40,72.31809
722.60,72.02731
722.80,71.71183
723.00,71.40960
723.20,71.09283
723.40,70.79375
723.60,70.47752
723.80,70.20179
724.00,69.90383
724.20,69.61821
724.40,69.30694
724.60,69.05119
724.80,68.76566
725.00,68.48558
725.20,68.20534
725.40,67.97782
725.60,67.69873
725.80,67.46277
726.00,67.23199
726.20,67.02828
726.40,66.82349
726.60,66.61981
726.80,66.40474
727.00,66.21192
727.20,66.01097
727.40,65.82884
727.60,65.65054
727.80,65.49541
728.00,65.35478
728.20,65.22362
728.40,65.08238
728.60,64.97681
728.80,64.86792
729.00,64.77199
729.20,64.68076
729.40,64.57345
729.60,64.51152
729.80,64.42664
730.00,64.36940
730.20,64.33511
730.40,64.31963
730.60,64.28119
730.80,64.27554
731.00,64.25928
731.20,64.25184
731.40,64.27340
731.60,64.27323
731.80,64.30376
732.00,64.33640
732.20,64.37534
732.40,64.41687
732.60,64.50912
732.80,64.57514
733.00,64.66506
733.20,64.72105
733.40,64.81077
733.60,64.91383
733.80,65.02391
734.00,65.14127
734.20,65.30983
734.40,65.45341
734.60,65.58850
734.80,65.73679
735.00,65.90732
735.20,66.06677
735.40,66.25274
735.60,66.44681
735.80,66.65088
736.00,66.83199
736.20,67.02566
736.40,67.20093
736.60,67.40169
736.80,67.61131
737.00,67.85324
737.20,68.07940
737.40,68.33584
737.60,68.57674
737.80,68.83618
738.00,69.09155
738.20,69.36398
738.40,69.64197
738.60,69.89610
738.80,70.13940
739.00,70.40576
739.20,70.66860
739.40,70.90508
739.60,71.17633
739.80,71.47012
740.00,71.75130
740.20,72.04051
740.40,72.34415
740.60,72.62582
740.80,72.92472
741.00,73.16718
741.20,73.45006
741.40,73.71761
741.60,74.01295
741.80,74.27157
742.00,74.57039
742.20,74.83253
742.40,75.09922
742.60,75.35026
742.80,75.59517
743.00,75.83497
743.20,76.07909
743.40,76.34258
743.60,76.58879
743.80,76.83890
744.00,77.06876
744.20,77.29405
744.40,77.48170
744.60,77.65217
744.80,77.82554
745.00,77.99065
745.20,78.16075
745.40,78.32811
745.60,78.52879
745.80,78.64655
746.00,78.78571
746.20,78.89453
746.40,78.98606
746.60,79.03730
746.80,79.11194
747.00,79.17548
747.20,79.21398
747.40,79.21669
747.60,79.20955
747.80,79.22593
748.00,79.20125
748.20,79.18116
748.40,79.19387
748.60,79.19493
748.80,79.12805
749.00,79.06680
749.20,78.98058
749.40,78.89909
749.60,78.76653
749.80,78.63898
750.00,78.51166
750.20,78.39268
750.40,78.22331
750.60,78.08828
750.80,77.97008
751.00,77.79585
751.20,77.55733
751.40,77.36808
751.60,77.18058
751.80,76.93495
752.00,76.72317
752.20,76.53185
752.40,76.31190
752.60,76.06422
752.80,75.86887
753.00,75.62340
753.20,75.37946
753.40,75.09812
753.60,74.81731
753.80,74.54323
754.00,74.29167
754.20,74.02089
754.40,73.77402
754.60,73.51927
754.80,73.23133
755.00,72.97657
755.20,72.70944
755.40,72.44085
755.60,72.14070
755.80,71.90901
756.00,71.63495
756.20,71.38481
756.40,71.11343
756.60,70.90313
756.80,70.63230
757.00,70.35349
757.20,70.10332
757.40,69.86730
757.60,69.59577
757.80,69.34656
758.00,69.11435
758.20,68.86322
758.40,68.63993
758.60,68.43048
758.80,68.22177
759.00,68.00026
759.20,67.78777
759.40,67.57606
759.60,67.39778
759.80,67.20996
760.00,67.03655
760.20,66.87685
760.40,66.69835
760.60,66.52534
760.80,66.35530
761.00,66.17107
761.20,66.03664
761.40,65.86542
761.60,65.72119
761.80,65.58865
762.00,65.50683
762.20,65.37746
762.40,65.31452
762.60,65.19765
762.80,65.09765
763.00,65.00919
763.20,64.88612
763.40,64.75870
763.60,64.69116
763.80,64.62182
764.00,64.53384
764.20,64.51790
764.40,64.48877
764.60,64.46514
764.80,64.46346
765.00,64.44914
765.20,64.47740
765.40,64.48780
765.60,64.50667
765.80,64.48053
766.00,64.52798
766.20,64.52408
766.40,64.58517
766.60,64.62223
766.80,64.72371
767.00,64.76874
767.20,64.84427
767.40,64.92352
767.60,65.01765
767.80,65.08585
768.00,65.17560
768.20,65.28941
768.40,65.38841
768.60,65.50362
768.80,65.63827
769.00,65.80943
769.20,65.95821
769.40,66.12576
769.60,66.30197
769.80,66.47280
770.00,66.65237
770.20,66.79077
770.40,66.95110
770.60,67.12654
770.80,67.29698
771.00,67.45471
771.20,67.68400
771.40,67.92038
771.60,68.09555
771.80,68.33720
772.00,68.55714
772.20,68.77376
772.40,68.99089
772.60,69.25637
772.80,69.46338
773.00,69.73169
773.20,69.96582
773.40,70.21343
773.60,70.46651
773.80,70.73331
774.00,70.96729
774.20,71.25130
774.40,71.50078
774.60,71.76985
774.80,72.02012
775.00,72.28598
775.20,72.54910
775.40,72.76050
775.60,72.99142
775.80,73.28660
776.00,73.55993
776.20,73.81084
776.40,74.11796
776.60,74.34822
776.80,74.58622
777.00,74.81716
777.20,75.05019
777.40,75.27721
777.60,75.56806
777.80,75.78059
778.00,75.98400
778.20,76.18587
778.40,76.40596
778.60,76.58264
778.80,76.82424
779.00,77.04830
779.20,77.25804
779.40,77.43945
779.60,77.61879
779.80,77.76124
780.00,77.95892
780.20,78.11370
780.40,78.29476
780.60,78.47075
780.80,78.59902
781.00,78.70123
781.20,78.81594
781.40,78.89860
781.60,78.94737
781.80,79.05685
782.00,79.15275
782.20,79.22484
782.40,79.29100
782.60,79.38532
782.80,79.40148
783.00,79.40935
783.20,79.45734
783.40,79.45474
783.60,79.41080
783.80,79.42960
784.00,79.40772
784.20,79.36777
784.40,79.33339
784.60,79.29976
784.80,79.25521
785.00,79.20032
785.20,79.11928
785.40,79.03734
785.60,78.94977
785.80,78.83900
786.00,78.73541
786.20,78.62046
786.40,78.52466
786.60,78.39713
786.80,78.24434
787.00,78.07295
787.20,77.89719
787.40,77.70963
787.60,77.54685
787.80,77.37777
788.00,77.18802
788.20,76.99068
788.40,76.78244
788.60,76.59307
788.80,76.36244
789.00,76.16841
789.20,75.94752
789.40,75.69945
789.60,75.42365
789.80,75.16675
790.00,74.90466
790.20,74.64768
790.40,74.45477
790.60,74.22380
790.80,73.99614
791.00,73.78316
791.20,73.54309
791.40,73.29620
791.60,73.04350
791.80,72.81007
792.00,72.55683
792.20,72.33301
792.40,72.03874
792.60,71.80505
792.80,71.53438
793.00,71.26217
793.20,71.02163
793.40,70.80076
793.60,70.54610
793.80,70.31242
794.00,70.08967
794.20,69.84194
794.40,69.64033
794.60,69.43055
794.80,69.22870
795.00,69.02565
795.20,68.83431
795.40,68.59979
795.60,68.41444
795.80,68.21272
796.00,67.99062
796.20,67.79013
796.40,67.61525
796.60,67.43597
796.80,67.24325
797.00,67.11873
797.20,66.95650
797.40,66.82016
797.60,66.65221
797.80,66.52223
798.00,66.34818
798.20,66.21626
798.40,66.07723
798.60,65.93550
798.80,65.83464
799.00,65.73717
799.20,65.61527
799.40,65.52020
799.60,65.45792
799.80,65.38031
800.00,65.33161
