"ItalySlowStock_2 - RawData"
"Wavelength nm.","T%"
200.00,0.40254
201.00,0.46173
202.00,0.51962
203.00,0.54037
204.00,0.57583
205.00,0.44311
206.00,0.38519
207.00,0.37231
208.00,0.30264
209.00,0.37290
210.00,0.34582
211.00,0.35141
212.00,0.34213
213.00,0.34600
214.00,0.36646
215.00,0.34504
216.00,0.32614
217.00,0.35853
218.00,0.30407
219.00,0.35875
220.00,0.35053
221.00,0.35276
222.00,0.32876
223.00,0.34805
224.00,0.31575
225.00,0.33979
226.00,0.31777
227.00,0.30196
228.00,0.32594
229.00,0.30912
230.00,0.33075
231.00,0.32734
232.00,0.30365
233.00,0.33120
234.00,0.31653
235.00,0.33860
236.00,0.35011
237.00,0.36690
238.00,0.37806
239.00,0.43502
240.00,0.46197
241.00,0.54654
242.00,0.61755
243.00,0.75992
244.00,0.89869
245.00,1.13535
246.00,1.44933
247.00,1.78270
248.00,2.27727
249.00,2.92643
250.00,3.72319
251.00,4.72269
252.00,5.94967
253.00,7.39452
254.00,8.98414
255.00,10.83914
256.00,12.96359
257.00,15.19656
258.00,17.55342
259.00,20.08139
260.00,22.70788
261.00,25.19005
262.00,27.66570
263.00,30.13766
264.00,32.42180
265.00,34.74820
266.00,36.87718
267.00,38.75393
268.00,40.77525
269.00,42.37185
270.00,44.29192
271.00,45.59103
272.00,47.18656
273.00,48.22976
274.00,49.11453
275.00,50.50563
276.00,51.23500
277.00,52.07467
278.00,52.60576
279.00,53.58850
280.00,53.90111
281.00,54.40001
282.00,54.82628
283.00,55.42133
284.00,55.72959
285.00,56.36469
286.00,56.70657
287.00,56.92300
288.00,57.35965
289.00,57.75883
290.00,58.14188
291.00,58.18624
292.00,58.25082
293.00,58.37725
294.00,58.60180
295.00,58.77942
296.00,58.83338
297.00,58.89906
298.00,58.96149
299.00,59.06391
300.00,59.06504
301.00,59.32758
302.00,59.22431
303.00,59.46631
304.00,59.61496
305.00,59.60707
306.00,59.75296
307.00,59.57511
308.00,60.10581
309.00,59.82611
310.00,59.95497
311.00,60.30018
312.00,60.39226
313.00,60.08411
314.00,60.47823
315.00,60.35894
316.00,60.68090
317.00,60.52890
318.00,60.26886
319.00,60.41548
320.00,60.90609
321.00,60.84238
322.00,60.66892
323.00,60.80448
324.00,60.81364
325.00,60.81730
326.00,60.96780
327.00,60.66636
328.00,60.86874
329.00,60.88842
330.00,60.65131
331.00,61.07635
332.00,61.28316
333.00,60.73152
334.00,61.12881
335.00,61.22018
336.00,61.26260
337.00,61.63999
338.00,61.24081
339.00,61.45432
340.00,61.37195
341.00,61.64490
342.00,61.60483
343.00,61.73561
344.00,61.57465
345.00,61.61802
346.00,61.68132
347.00,61.49485
348.00,61.59356
349.00,61.74878
350.00,61.81257
351.00,61.69262
352.00,61.88281
353.00,61.74765
354.00,61.75372
355.00,61.82791
356.00,61.75908
357.00,61.93762
358.00,61.93427
359.00,62.03458
360.00,61.95933
361.00,62.06615
362.00,62.00526
363.00,62.09693
364.00,62.23440
365.00,62.40559
366.00,62.42625
367.00,62.52168
368.00,62.23343
369.00,62.46722
370.00,62.43519
371.00,62.55187
372.00,62.46213
373.00,62.42979
374.00,62.47242
375.00,62.45579
376.00,62.59940
377.00,62.52447
378.00,62.53797
379.00,62.61384
380.00,62.57030
381.00,62.48398
382.00,62.52972
383.00,62.60755
384.00,62.61537
385.00,62.49077
386.00,62.51901
387.00,62.66108
388.00,62.59829
389.00,62.70279
390.00,62.72105
391.00,62.71961
392.00,62.79702
393.00,62.81104
394.00,62.78517
395.00,62.79988
396.00,62.76564
397.00,62.87437
398.00,62.84233
399.00,62.98369
400.00,63.00691
401.00,63.13303
402.00,63.08708
403.00,63.09953
404.00,63.10738
405.00,63.18749
406.00,63.32005
407.00,63.29849
408.00,63.30235
409.00,63.44556
410.00,63.48335
411.00,63.45204
412.00,63.46529
413.00,63.50375
414.00,63.54666
415.00,63.55258
416.00,63.53287
417.00,63.65585
418.00,63.56580
419.00,63.48118
420.00,63.54686
421.00,63.53699
422.00,63.59092
423.00,63.65690
424.00,63.62671
425.00,63.64276
426.00,63.59485
427.00,63.49296
428.00,63.57347
429.00,63.51221
430.00,63.52043
431.00,63.44957
432.00,63.41876
433.00,63.45952
434.00,63.44222
435.00,63.49093
436.00,63.46599
437.00,63.42635
438.00,63.42178
439.00,63.37720
440.00,63.41649
441.00,63.42741
442.00,63.37140
443.00,63.40928
444.00,63.47618
445.00,63.47642
446.00,63.61414
447.00,63.50893
448.00,63.51730
449.00,63.64627
450.00,63.69453
451.00,63.64711
452.00,63.66684
453.00,63.73650
454.00,63.75785
455.00,63.88050
456.00,63.91204
457.00,63.99831
458.00,63.94460
459.00,64.08368
460.00,64.11638
461.00,64.14089
462.00,64.24437
463.00,64.35322
464.00,64.22104
465.00,64.37681
466.00,64.40046
467.00,64.45297
468.00,64.49312
469.00,64.53894
470.00,64.65532
471.00,64.64049
472.00,64.69696
473.00,64.64173
474.00,64.72148
475.00,64.73795
476.00,64.81755
477.00,64.82313
478.00,64.82885
479.00,64.74077
480.00,64.79910
481.00,64.71734
482.00,64.82872
483.00,64.77517
484.00,64.82629
485.00,64.74807
486.00,64.77122
487.00,64.74329
488.00,64.71109
489.00,64.66950
490.00,64.66842
491.00,64.68802
492.00,64.64694
493.00,64.60926
494.00,64.58708
495.00,64.53431
496.00,64.50976
497.00,64.45260
498.00,64.47839
499.00,64.43306
500.00,64.40293
501.00,64.39466
502.00,64.31177
503.00,64.35311
504.00,64.27387
505.00,64.27469
506.00,64.22411
507.00,64.18951
508.00,64.16643
509.00,64.19666
510.00,64.13057
511.00,64.11088
512.00,64.08041
513.00,64.08669
514.00,64.10301
515.00,64.10231
516.00,64.11943
517.00,64.06289
518.00,64.10004
519.00,64.10054
520.00,64.11852
521.00,64.13776
522.00,64.16474
523.00,64.15632
524.00,64.21877
525.00,64.17172
526.00,64.23482
527.00,64.27670
528.00,64.34879
529.00,64.37685
530.00,64.42713
531.00,64.42571
532.00,64.59278
533.00,64.54538
534.00,64.60268
535.00,64.61378
536.00,64.78024
537.00,64.77792
538.00,64.77945
539.00,64.86304
540.00,64.89733
541.00,64.96686
542.00,65.06964
543.00,65.04024
544.00,65.14051
545.00,65.25447
546.00,65.23259
547.00,65.33912
548.00,65.39977
549.00,65.40966
550.00,65.50596
551.00,65.54344
552.00,65.54704
553.00,65.64263
554.00,65.68499
555.00,65.73565
556.00,65.78533
557.00,65.83794
558.00,65.86985
559.00,65.86046
560.00,65.96029
561.00,65.97091
562.00,66.07798
563.00,66.01211
564.00,66.03144
565.00,66.07609
566.00,66.15214
567.00,66.09883
568.00,66.10498
569.00,66.13753
570.00,66.13039
571.00,66.12311
572.00,66.19411
573.00,66.14088
574.00,66.13110
575.00,66.16516
576.00,66.09305
577.00,66.09070
578.00,66.13663
579.00,66.08189
580.00,66.09696
581.00,66.05266
582.00,66.06821
583.00,65.96727
584.00,66.04630
585.00,65.95804
586.00,65.94068
587.00,65.91067
588.00,65.90419
589.00,65.86009
590.00,65.77523
591.00,65.81444
592.00,65.78850
593.00,65.69765
594.00,65.70663
595.00,65.64768
596.00,65.63957
597.00,65.59623
598.00,65.51048
599.00,65.49710
600.00,65.48084
601.00,65.48026
602.00,65.41212
603.00,65.32539
604.00,65.25795
605.00,65.29508
606.00,65.25776
607.00,65.19408
608.00,65.18877
609.00,65.07029
610.00,65.14202
611.00,65.10413
612.00,65.06871
613.00,65.08703
614.00,65.05033
615.00,64.96176
616.00,65.01087
617.00,64.95254
618.00,64.91576
619.00,64.96397
620.00,64.99383
621.00,64.90759
622.00,64.90728
623.00,64.91592
624.00,64.97844
625.00,64.92833
626.00,64.87825
627.00,64.98694
628.00,64.89116
629.00,64.95584
630.00,64.89794
631.00,64.91562
632.00,64.97872
633.00,64.94278
634.00,64.97972
635.00,64.99253
636.00,64.98525
637.00,65.04229
638.00,65.15083
639.00,65.07912
640.00,65.20767
641.00,65.16902
642.00,65.27734
643.00,65.23606
644.00,65.28536
645.00,65.31891
646.00,65.37966
647.00,65.38121
648.00,65.41006
649.00,65.51174
650.00,65.52948
651.00,65.54372
652.00,65.67811
653.00,65.69203
654.00,65.81629
655.00,65.81300
656.00,65.84504
657.00,65.92859
658.00,65.87861
659.00,66.01579
660.00,66.18453
661.00,66.10790
662.00,66.18587
663.00,66.25451
664.00,66.27294
665.00,66.41864
666.00,66.42196
667.00,66.44962
668.00,66.54721
669.00,66.65717
670.00,66.63318
671.00,66.68302
672.00,66.74611
673.00,66.87437
674.00,66.88698
675.00,66.98949
676.00,66.95479
677.00,67.03882
678.00,67.05797
679.00,67.18675
680.00,67.26090
681.00,67.37967
682.00,67.26488
683.00,67.47921
684.00,67.34796
685.00,67.43309
686.00,67.49380
687.00,67.60347
688.00,67.63637
689.00,67.56554
690.00,67.69015
691.00,67.73253
692.00,67.70626
693.00,67.77719
694.00,67.79292
695.00,67.76404
696.00,67.79292
697.00,67.99383
698.00,68.04010
699.00,67.90411
700.00,67.96917
701.00,67.95070
702.00,67.84267
703.00,67.98110
704.00,68.03183
705.00,67.97595
706.00,67.94884
707.00,68.03211
708.00,68.02632
709.00,68.31908
710.00,68.05710
711.00,68.06710
712.00,68.10606
713.00,67.91523
714.00,68.03235
715.00,68.11615
716.00,68.02763
717.00,68.16744
718.00,67.97869
719.00,68.19798
720.00,68.12209
721.00,67.98595
722.00,68.03906
723.00,67.85660
724.00,67.87451
725.00,67.91881
726.00,68.06927
727.00,67.90853
728.00,67.81516
729.00,67.77982
730.00,67.71875
731.00,67.66517
732.00,67.81955
733.00,67.64030
734.00,67.79574
735.00,67.95902
736.00,67.55663
737.00,67.53872
738.00,67.52808
739.00,67.47428
740.00,67.65544
741.00,67.58773
742.00,67.46892
743.00,67.54493
744.00,67.41340
745.00,67.25022
746.00,67.19048
747.00,67.56601
748.00,67.53389
749.00,67.34704
750.00,67.24100
751.00,67.23821
752.00,67.20142
753.00,67.15186
754.00,66.94657
755.00,67.17401
756.00,67.04620
757.00,67.04465
758.00,67.14332
759.00,67.03495
760.00,66.83426
761.00,67.05996
762.00,66.81598
763.00,66.81891
764.00,66.78064
765.00,66.96102
766.00,66.62797
767.00,66.73138
768.00,66.65376
769.00,66.76240
770.00,66.66062
771.00,66.47820
772.00,66.46326
773.00,66.51818
774.00,66.53360
775.00,66.58630
776.00,66.53974
777.00,66.50603
778.00,66.56100
779.00,66.31628
780.00,66.39746
781.00,66.39427
782.00,66.17348
783.00,66.25267
784.00,66.06386
785.00,66.06386
786.00,66.06268
787.00,66.42244
788.00,66.51516
789.00,66.41145
790.00,66.51480
791.00,66.33270
792.00,66.03324
793.00,66.36724
794.00,66.37790
795.00,66.16976
796.00,66.25225
797.00,66.42894
798.00,66.28540
799.00,66.38638
800.00,66.11177
