"MN1345VSlowTrans - RawData"
"Wavelength nm.","T%"
190.00,2.22965
191.00,1.47905
192.00,1.14833
193.00,0.88016
194.00,0.61743
195.00,0.44647
196.00,0.38928
197.00,0.36837
198.00,0.34125
199.00,0.32411
200.00,0.29877
201.00,0.27759
202.00,0.24454
203.00,0.23030
204.00,0.20751
205.00,0.23938
206.00,0.21295
207.00,0.25875
208.00,0.28392
209.00,0.31793
210.00,0.31539
211.00,0.33999
212.00,0.35391
213.00,0.39351
214.00,0.38973
215.00,0.40920
216.00,0.41337
217.00,0.41772
218.00,0.42467
219.00,0.43216
220.00,0.44768
221.00,0.46335
222.00,0.51088
223.00,0.59057
224.00,0.71879
225.00,0.89718
226.00,1.20172
227.00,1.67685
228.00,2.35735
229.00,3.35315
230.00,4.68840
231.00,6.49454
232.00,8.68732
233.00,11.37890
234.00,14.33185
235.00,17.77063
236.00,21.45452
237.00,25.37024
238.00,29.32485
239.00,33.53848
240.00,37.26958
241.00,40.89404
242.00,43.70438
243.00,45.88909
244.00,47.37870
245.00,48.44629
246.00,49.08363
247.00,49.41366
248.00,49.40530
249.00,49.64609
250.00,49.80737
251.00,49.99741
252.00,50.31024
253.00,50.81072
254.00,51.38687
255.00,52.04285
256.00,52.93375
257.00,53.88004
258.00,54.56631
259.00,55.53976
260.00,56.38638
261.00,57.21135
262.00,57.87822
263.00,58.41095
264.00,58.84748
265.00,59.28887
266.00,59.55063
267.00,59.54157
268.00,59.58786
269.00,59.53333
270.00,59.33816
271.00,59.04399
272.00,58.70784
273.00,58.29577
274.00,57.91271
275.00,57.53205
276.00,57.21123
277.00,56.77987
278.00,56.68243
279.00,56.43789
280.00,56.19706
281.00,56.00146
282.00,56.16692
283.00,56.08612
284.00,56.07131
285.00,56.33246
286.00,56.61513
287.00,56.73174
288.00,57.09317
289.00,57.46264
290.00,57.92919
291.00,58.32511
292.00,58.78659
293.00,59.06051
294.00,59.64170
295.00,60.04512
296.00,60.48432
297.00,60.95904
298.00,61.38091
299.00,61.68810
300.00,62.18243
301.00,62.47310
302.00,62.74286
303.00,63.00212
304.00,63.23491
305.00,63.29628
306.00,63.49931
307.00,63.39657
308.00,63.41691
309.00,63.35176
310.00,63.42720
311.00,63.42111
312.00,63.14454
313.00,62.95057
314.00,62.75915
315.00,62.55304
316.00,62.46386
317.00,62.17459
318.00,61.82387
319.00,61.57886
320.00,61.34956
321.00,61.23107
322.00,60.77073
323.00,60.60424
324.00,60.45969
325.00,60.28453
326.00,60.05208
327.00,59.71525
328.00,59.72973
329.00,59.45254
330.00,59.39084
331.00,59.38579
332.00,59.30037
333.00,59.28962
334.00,59.31409
335.00,59.16307
336.00,59.25357
337.00,59.37186
338.00,59.27075
339.00,59.48328
340.00,59.71673
341.00,59.74725
342.00,59.92087
343.00,60.03432
344.00,60.03681
345.00,60.42424
346.00,60.57884
347.00,60.79603
348.00,60.95102
349.00,61.21635
350.00,61.47556
351.00,61.75811
352.00,61.94671
353.00,62.21902
354.00,62.45096
355.00,62.61135
356.00,62.98349
357.00,63.07448
358.00,63.33354
359.00,63.61568
360.00,63.75508
361.00,63.87233
362.00,64.13319
363.00,64.32634
364.00,64.48240
365.00,64.54152
366.00,64.71136
367.00,64.70757
368.00,64.84299
369.00,64.90433
370.00,64.99481
371.00,65.13256
372.00,65.15725
373.00,65.11352
374.00,65.08301
375.00,65.18030
376.00,65.06118
377.00,65.00185
378.00,64.90170
379.00,64.84782
380.00,64.73709
381.00,64.70675
382.00,64.58787
383.00,64.52562
384.00,64.37148
385.00,64.34796
386.00,64.17440
387.00,63.99970
388.00,63.91094
389.00,63.77782
390.00,63.60943
391.00,63.45384
392.00,63.31024
393.00,63.15528
394.00,62.98705
395.00,62.86933
396.00,62.66046
397.00,62.53567
398.00,62.37438
399.00,62.24577
400.00,62.13639
401.00,62.02720
402.00,61.88346
403.00,61.72128
404.00,61.65836
405.00,61.54743
406.00,61.41777
407.00,61.40186
408.00,61.29151
409.00,61.18323
410.00,61.10414
411.00,61.00329
412.00,60.97203
413.00,60.92035
414.00,60.86842
415.00,60.81662
416.00,60.78963
417.00,60.80587
418.00,60.71950
419.00,60.73347
420.00,60.73151
421.00,60.76385
422.00,60.75774
423.00,60.77482
424.00,60.83601
425.00,60.87589
426.00,60.88062
427.00,60.93126
428.00,60.98080
429.00,61.01128
430.00,61.08997
431.00,61.16453
432.00,61.23279
433.00,61.28706
434.00,61.41470
435.00,61.51267
436.00,61.56319
437.00,61.68516
438.00,61.75047
439.00,61.87487
440.00,61.98282
441.00,62.08778
442.00,62.17699
443.00,62.32657
444.00,62.42914
445.00,62.56052
446.00,62.66209
447.00,62.80404
448.00,62.91978
449.00,63.03605
450.00,63.14965
451.00,63.23960
452.00,63.42161
453.00,63.51516
454.00,63.64661
455.00,63.76070
456.00,63.87957
457.00,63.99391
458.00,64.14492
459.00,64.27532
460.00,64.39027
461.00,64.48818
462.00,64.61426
463.00,64.69441
464.00,64.81876
465.00,64.91258
466.00,65.00820
467.00,65.10431
468.00,65.19279
469.00,65.28201
470.00,65.33599
471.00,65.40739
472.00,65.50499
473.00,65.55588
474.00,65.62015
475.00,65.67104
476.00,65.74572
477.00,65.78493
478.00,65.86118
479.00,65.92272
480.00,65.91896
481.00,65.98846
482.00,65.99735
483.00,66.02706
484.00,66.00069
485.00,66.03653
486.00,66.07081
487.00,66.06377
488.00,66.06324
489.00,66.08578
490.00,66.06821
491.00,66.10229
492.00,66.08671
493.00,66.05895
494.00,66.02178
495.00,66.00789
496.00,65.97840
497.00,65.94781
498.00,65.96536
499.00,65.88753
500.00,65.88050
501.00,65.78655
502.00,65.76870
503.00,65.70745
504.00,65.67845
505.00,65.63337
506.00,65.54216
507.00,65.52960
508.00,65.41694
509.00,65.36298
510.00,65.30775
511.00,65.22818
512.00,65.16176
513.00,65.13458
514.00,65.03516
515.00,64.96686
516.00,64.94985
517.00,64.82551
518.00,64.77938
519.00,64.66262
520.00,64.63112
521.00,64.57361
522.00,64.45449
523.00,64.44863
524.00,64.36484
525.00,64.30150
526.00,64.16834
527.00,64.11478
528.00,64.08584
529.00,63.96968
530.00,63.93479
531.00,63.86585
532.00,63.77726
533.00,63.71491
534.00,63.63341
535.00,63.55684
536.00,63.50224
537.00,63.43104
538.00,63.35092
539.00,63.31133
540.00,63.21986
541.00,63.16960
542.00,63.08531
543.00,63.04925
544.00,62.97524
545.00,63.01463
546.00,62.89087
547.00,62.84872
548.00,62.79167
549.00,62.74827
550.00,62.65861
551.00,62.66029
552.00,62.60149
553.00,62.58667
554.00,62.53529
555.00,62.51547
556.00,62.42829
557.00,62.41152
558.00,62.36089
559.00,62.36758
560.00,62.33816
561.00,62.30707
562.00,62.23199
563.00,62.26479
564.00,62.20744
565.00,62.21929
566.00,62.16630
567.00,62.14298
568.00,62.15520
569.00,62.17528
570.00,62.10949
571.00,62.11289
572.00,62.11304
573.00,62.11796
574.00,62.11941
575.00,62.10454
576.00,62.08419
577.00,62.10971
578.00,62.09037
579.00,62.11606
580.00,62.11208
581.00,62.14314
582.00,62.16036
583.00,62.13707
584.00,62.19805
585.00,62.18991
586.00,62.21869
587.00,62.22742
588.00,62.25268
589.00,62.25950
590.00,62.29385
591.00,62.28717
592.00,62.34751
593.00,62.35310
594.00,62.38775
595.00,62.41379
596.00,62.43700
597.00,62.49321
598.00,62.51338
599.00,62.52283
600.00,62.56392
601.00,62.61022
602.00,62.64999
603.00,62.72290
604.00,62.76181
605.00,62.79026
606.00,62.82389
607.00,62.86891
608.00,62.90143
609.00,62.93364
610.00,63.04218
611.00,63.05195
612.00,63.10693
613.00,63.17133
614.00,63.20971
615.00,63.24405
616.00,63.30158
617.00,63.36964
618.00,63.39347
619.00,63.52422
620.00,63.50318
621.00,63.59574
622.00,63.65303
623.00,63.72463
624.00,63.75406
625.00,63.78348
626.00,63.83294
627.00,63.94453
628.00,63.97821
629.00,64.02191
630.00,64.11159
631.00,64.12229
632.00,64.21638
633.00,64.28015
634.00,64.35263
635.00,64.45578
636.00,64.45382
637.00,64.52733
638.00,64.57983
639.00,64.64695
640.00,64.70580
641.00,64.74311
642.00,64.80768
643.00,64.87928
644.00,64.98510
645.00,64.98860
646.00,65.10399
647.00,65.16827
648.00,65.18872
649.00,65.28756
650.00,65.30269
651.00,65.37834
652.00,65.46183
653.00,65.45638
654.00,65.54724
655.00,65.56379
656.00,65.64323
657.00,65.67559
658.00,65.75352
659.00,65.87312
660.00,65.81898
661.00,65.93451
662.00,65.99587
663.00,66.03875
664.00,66.14600
665.00,66.14941
666.00,66.21398
667.00,66.26871
668.00,66.28568
669.00,66.38052
670.00,66.40145
671.00,66.45314
672.00,66.53745
673.00,66.57398
674.00,66.61177
675.00,66.65771
676.00,66.68356
677.00,66.72223
678.00,66.79891
679.00,66.90406
680.00,66.90334
681.00,66.91525
682.00,67.00404
683.00,66.98433
684.00,67.06555
685.00,67.03628
686.00,67.12083
687.00,67.17585
688.00,67.22783
689.00,67.24611
690.00,67.21737
691.00,67.25975
692.00,67.35082
693.00,67.40398
694.00,67.41499
695.00,67.47338
696.00,67.42782
697.00,67.49775
698.00,67.51547
699.00,67.53848
700.00,67.58201
701.00,67.61081
702.00,67.65075
703.00,67.64578
704.00,67.74625
705.00,67.69681
706.00,67.74219
707.00,67.77312
708.00,67.76459
709.00,67.81238
710.00,67.83291
711.00,67.82071
712.00,67.84518
713.00,67.84775
714.00,67.81029
715.00,67.85782
716.00,67.83322
717.00,67.94462
718.00,67.88422
719.00,67.93709
720.00,67.94518
721.00,67.95539
722.00,67.99299
723.00,67.90742
724.00,67.97177
725.00,67.95905
726.00,67.95284
727.00,67.93095
728.00,67.96553
729.00,67.99366
730.00,67.85286
731.00,67.98087
732.00,68.00404
733.00,67.87651
734.00,67.98287
735.00,67.98504
736.00,68.01276
737.00,68.04617
738.00,68.06497
739.00,67.99926
740.00,67.93096
741.00,68.01099
742.00,68.11845
743.00,67.95805
744.00,67.99937
745.00,67.79367
746.00,68.04349
747.00,67.94965
748.00,67.83665
749.00,67.95313
750.00,67.88765
751.00,67.85540
752.00,67.90020
753.00,67.89247
754.00,67.86561
755.00,67.74119
756.00,67.84550
757.00,67.88036
758.00,67.88273
759.00,67.75985
760.00,67.66635
761.00,67.75722
762.00,67.76095
763.00,67.81534
764.00,67.66375
765.00,67.62583
766.00,67.76226
767.00,67.67991
768.00,67.59545
769.00,67.72964
770.00,67.65930
771.00,67.46966
772.00,67.54891
773.00,67.58891
774.00,67.37852
775.00,67.59701
776.00,67.59526
777.00,67.45698
778.00,67.41186
779.00,67.45189
780.00,67.47892
781.00,67.35208
782.00,67.38290
783.00,67.41158
784.00,67.46050
785.00,67.37768
786.00,67.33582
787.00,67.28843
788.00,67.14740
789.00,67.15577
790.00,67.25345
791.00,67.12723
792.00,67.07777
793.00,67.03195
794.00,67.01199
795.00,67.09794
796.00,66.83188
797.00,66.93304
798.00,66.91040
799.00,66.86722
800.00,67.01029
