"SpecRefSubTrain - RawData"
"Wavelength nm.","R%"
190.00,23.83625
191.00,21.11689
192.00,20.74117
193.00,19.61513
194.00,21.39812
195.00,21.46486
196.00,19.19787
197.00,19.41317
198.00,19.25921
199.00,19.96454
200.00,18.13304
201.00,20.27093
202.00,22.11159
203.00,19.45940
204.00,19.49077
205.00,22.08872
206.00,22.26288
207.00,19.87684
208.00,20.96583
209.00,21.82872
210.00,22.20954
211.00,21.66219
212.00,21.83408
213.00,21.64555
214.00,21.51013
215.00,21.62799
216.00,21.17845
217.00,21.68618
218.00,21.50621
219.00,21.49830
220.00,21.50868
221.00,21.33855
222.00,20.76536
223.00,20.91437
224.00,21.10056
225.00,21.27534
226.00,21.12831
227.00,21.05530
228.00,21.15356
229.00,21.52308
230.00,21.41394
231.00,21.50016
232.00,21.54497
233.00,21.49961
234.00,21.74763
235.00,21.54107
236.00,21.76421
237.00,21.73506
238.00,21.93578
239.00,21.99150
240.00,22.06000
241.00,22.18035
242.00,22.10529
243.00,22.48884
244.00,22.51247
245.00,22.98798
246.00,23.04256
247.00,22.81682
248.00,23.03913
249.00,23.03524
250.00,23.14000
251.00,23.28655
252.00,23.26484
253.00,23.36855
254.00,23.41909
255.00,23.51926
256.00,23.72000
257.00,23.51001
258.00,23.27773
259.00,23.44384
260.00,23.50763
261.00,23.56220
262.00,23.47277
263.00,23.36851
264.00,23.64157
265.00,23.39820
266.00,23.26145
267.00,23.34189
268.00,23.45677
269.00,23.57536
270.00,23.39057
271.00,23.38651
272.00,23.47897
273.00,23.33453
274.00,23.18414
275.00,23.14899
276.00,23.42906
277.00,23.25844
278.00,23.27508
279.00,23.36959
280.00,23.52076
281.00,23.15326
282.00,23.44030
283.00,22.96640
284.00,23.50754
285.00,23.47961
286.00,23.47321
287.00,23.66816
288.00,23.37108
289.00,23.60665
290.00,23.45038
291.00,23.65972
292.00,23.70158
293.00,23.45478
294.00,23.71277
295.00,23.86636
296.00,24.06651
297.00,23.72815
298.00,23.95243
299.00,23.93497
300.00,23.67484
301.00,23.89702
302.00,23.71411
303.00,23.76043
304.00,23.73237
305.00,23.75698
306.00,23.71449
307.00,23.72048
308.00,23.73256
309.00,23.76284
310.00,23.96757
311.00,23.55766
312.00,23.50652
313.00,23.76586
314.00,23.72723
315.00,23.90386
316.00,23.70080
317.00,23.89876
318.00,23.64859
319.00,23.35480
320.00,23.37835
321.00,23.76764
322.00,23.53352
323.00,23.73900
324.00,23.42893
325.00,23.70186
326.00,23.34037
327.00,23.79482
328.00,23.44503
329.00,23.40419
330.00,23.51051
331.00,23.49004
332.00,23.33637
333.00,23.54628
334.00,23.43010
335.00,23.50492
336.00,23.38191
337.00,23.40223
338.00,23.57647
339.00,23.36107
340.00,23.47642
341.00,23.59804
342.00,23.33014
343.00,23.62904
344.00,23.61741
345.00,23.56716
346.00,23.32359
347.00,23.43121
348.00,23.32341
349.00,23.17215
350.00,23.30185
351.00,23.18505
352.00,23.36386
353.00,23.38210
354.00,23.02615
355.00,23.21789
356.00,23.40946
357.00,23.15847
358.00,23.33709
359.00,23.19036
360.00,23.25177
361.00,23.28435
362.00,23.12662
363.00,23.19849
364.00,23.14646
365.00,23.16929
366.00,23.04086
367.00,23.13482
368.00,23.23482
369.00,22.89041
370.00,23.15645
371.00,23.03661
372.00,23.36411
373.00,23.12471
374.00,23.13762
375.00,23.12173
376.00,23.13863
377.00,23.06150
378.00,22.98706
379.00,23.00507
380.00,22.92689
381.00,23.13024
382.00,23.03914
383.00,23.06076
384.00,22.94925
385.00,22.95155
386.00,22.90526
387.00,22.85131
388.00,22.83846
389.00,22.91636
390.00,22.93300
391.00,22.92151
392.00,22.83704
393.00,22.67150
394.00,22.69786
395.00,22.81808
396.00,22.63615
397.00,22.77651
398.00,22.86305
399.00,22.75449
400.00,22.73158
401.00,22.83730
402.00,22.67844
403.00,22.75563
404.00,22.59815
405.00,22.61569
406.00,22.74431
407.00,22.64294
408.00,22.67090
409.00,22.60808
410.00,22.57038
411.00,22.54511
412.00,22.70060
413.00,22.60956
414.00,22.52513
415.00,22.50824
416.00,22.53163
417.00,22.51502
418.00,22.38249
419.00,22.43513
420.00,22.54110
421.00,22.51163
422.00,22.51328
423.00,22.40214
424.00,22.40357
425.00,22.33887
426.00,22.43928
427.00,22.32338
428.00,22.24577
429.00,22.40955
430.00,22.33168
431.00,22.46620
432.00,22.22717
433.00,22.33101
434.00,22.19010
435.00,22.31822
436.00,22.26583
437.00,22.29660
438.00,22.22907
439.00,22.27347
440.00,22.14321
441.00,22.23447
442.00,22.18820
443.00,22.19998
444.00,22.07717
445.00,22.16804
446.00,22.19686
447.00,22.11469
448.00,22.07192
449.00,22.07929
450.00,22.15898
451.00,22.06277
452.00,22.13277
453.00,21.97960
454.00,22.02624
455.00,22.02967
456.00,21.94856
457.00,22.00172
458.00,22.05319
459.00,21.93995
460.00,21.90341
461.00,21.92945
462.00,21.94545
463.00,21.92433
464.00,21.89700
465.00,21.86031
466.00,21.83662
467.00,21.86338
468.00,21.83781
469.00,21.81766
470.00,21.81589
471.00,21.76495
472.00,21.72536
473.00,21.82787
474.00,21.76698
475.00,21.72187
476.00,21.73728
477.00,21.73228
478.00,21.73836
479.00,21.60867
480.00,21.66023
481.00,21.71249
482.00,21.64331
483.00,21.67144
484.00,21.62558
485.00,21.54419
486.00,21.56690
487.00,21.54736
488.00,21.49235
489.00,21.56668
490.00,21.60787
491.00,21.53476
492.00,21.50979
493.00,21.51050
494.00,21.45169
495.00,21.46974
496.00,21.50861
497.00,21.42641
498.00,21.48471
499.00,21.46545
500.00,21.37104
501.00,21.43525
502.00,21.40017
503.00,21.36863
504.00,21.38476
505.00,21.36987
506.00,21.39303
507.00,21.34826
508.00,21.34489
509.00,21.31733
510.00,21.33323
511.00,21.34100
512.00,21.28798
513.00,21.23066
514.00,21.15959
515.00,21.24508
516.00,21.20757
517.00,21.27177
518.00,21.17328
519.00,21.16784
520.00,21.17971
521.00,21.19216
522.00,21.18548
523.00,21.10965
524.00,21.13929
525.00,21.12070
526.00,21.15483
527.00,21.07965
528.00,21.10691
529.00,21.02813
530.00,20.94885
531.00,21.06409
532.00,21.05959
533.00,21.06439
534.00,20.94820
535.00,20.99677
536.00,20.93035
537.00,20.98086
538.00,21.00492
539.00,21.01322
540.00,20.94436
541.00,20.98337
542.00,20.95496
543.00,20.95613
544.00,20.85259
545.00,20.89301
546.00,20.90764
547.00,20.90399
548.00,20.90917
549.00,20.84855
550.00,20.84261
551.00,20.83065
552.00,20.75966
553.00,20.83530
554.00,20.79786
555.00,20.81051
556.00,20.88772
557.00,20.71020
558.00,20.74154
559.00,20.71910
560.00,20.81843
561.00,20.75791
562.00,20.72062
563.00,20.68377
564.00,20.69563
565.00,20.63508
566.00,20.62107
567.00,20.70577
568.00,20.66334
569.00,20.65252
570.00,20.55894
571.00,20.53174
572.00,20.62162
573.00,20.56302
574.00,20.55089
575.00,20.56447
576.00,20.50014
577.00,20.48309
578.00,20.57276
579.00,20.49172
580.00,20.43443
581.00,20.49302
582.00,20.46773
583.00,20.49136
584.00,20.43833
585.00,20.49333
586.00,20.49268
587.00,20.40587
588.00,20.41097
589.00,20.40434
590.00,20.37829
591.00,20.36211
592.00,20.35295
593.00,20.37382
594.00,20.31517
595.00,20.27608
596.00,20.33024
597.00,20.32466
598.00,20.25429
599.00,20.33353
600.00,20.24147
601.00,20.25514
602.00,20.23670
603.00,20.23143
604.00,20.21829
605.00,20.17753
606.00,20.24316
607.00,20.20275
608.00,20.16734
609.00,20.13272
610.00,20.20964
611.00,20.09767
612.00,20.16343
613.00,20.11054
614.00,20.17248
615.00,20.17965
616.00,20.12689
617.00,20.14181
618.00,20.12789
619.00,20.11019
620.00,20.01990
621.00,20.03333
622.00,20.04245
623.00,19.95440
624.00,20.02702
625.00,19.99134
626.00,20.05126
627.00,20.01680
628.00,20.02981
629.00,19.97419
630.00,19.90574
631.00,19.98039
632.00,19.89708
633.00,19.89122
634.00,19.89913
635.00,19.92728
636.00,19.85829
637.00,19.90851
638.00,19.85957
639.00,19.79913
640.00,19.80133
641.00,19.82536
642.00,19.80178
643.00,19.85735
644.00,19.77535
645.00,19.76583
646.00,19.79386
647.00,19.80025
648.00,19.78362
649.00,19.74260
650.00,19.69963
651.00,19.72252
652.00,19.60829
653.00,19.71655
654.00,19.63203
655.00,19.66580
656.00,19.69615
657.00,19.63479
658.00,19.68401
659.00,19.59261
660.00,19.63297
661.00,19.62901
662.00,19.56392
663.00,19.56724
664.00,19.55854
665.00,19.54176
666.00,19.49107
667.00,19.54577
668.00,19.49963
669.00,19.52490
670.00,19.57368
671.00,19.36544
672.00,19.49756
673.00,19.52668
674.00,19.46569
675.00,19.44068
676.00,19.44418
677.00,19.47080
678.00,19.45816
679.00,19.31906
680.00,19.42449
681.00,19.39592
682.00,19.39150
683.00,19.41398
684.00,19.32167
685.00,19.27837
686.00,19.29120
687.00,19.30573
688.00,19.30276
689.00,19.32646
690.00,19.25846
691.00,19.26766
692.00,19.27460
693.00,19.32058
694.00,19.22141
695.00,19.20306
696.00,19.11643
697.00,19.16154
698.00,19.29111
699.00,19.19869
700.00,19.13247
701.00,19.19849
702.00,19.05383
703.00,19.16986
704.00,18.99881
705.00,19.16190
706.00,19.15825
707.00,19.03003
708.00,18.94210
709.00,19.06894
710.00,19.00324
711.00,19.01608
712.00,19.01681
713.00,19.04221
714.00,19.02722
715.00,19.13585
716.00,19.03308
717.00,18.90917
718.00,18.94657
719.00,18.90149
720.00,18.95446
721.00,18.88637
722.00,18.75498
723.00,18.80772
724.00,18.85131
725.00,18.90785
726.00,18.79439
727.00,18.93849
728.00,18.69885
729.00,18.75124
730.00,18.65366
731.00,18.74511
732.00,18.75674
733.00,18.64996
734.00,18.73776
735.00,18.55311
736.00,18.75744
737.00,18.82489
738.00,18.78084
739.00,18.86178
740.00,18.85596
741.00,18.53977
742.00,18.69309
743.00,18.64365
744.00,18.57928
745.00,18.69144
746.00,18.62224
747.00,18.45432
748.00,18.49352
749.00,18.68052
750.00,18.57717
751.00,18.45449
752.00,18.53277
753.00,18.66394
754.00,18.48394
755.00,18.54647
756.00,18.39011
757.00,18.48980
758.00,18.44508
759.00,18.54599
760.00,18.38766
761.00,18.38899
762.00,18.44720
763.00,18.41240
764.00,18.36277
765.00,18.15233
766.00,18.38695
767.00,18.31240
768.00,18.35132
769.00,18.39803
770.00,18.41745
771.00,18.31185
772.00,18.23277
773.00,18.00445
774.00,18.34720
775.00,18.18591
776.00,18.27245
777.00,18.45785
778.00,18.24023
779.00,18.13009
780.00,18.18747
781.00,18.03921
782.00,18.16019
783.00,18.19180
784.00,18.01040
785.00,18.15859
786.00,18.17995
787.00,18.16989
788.00,18.11189
789.00,17.96863
790.00,18.18743
791.00,18.10872
792.00,18.27770
793.00,18.11613
794.00,18.20194
795.00,17.82083
796.00,18.23718
797.00,17.89743
798.00,18.18030
799.00,18.07153
800.00,18.24471
801.00,18.13409
802.00,17.99637
803.00,18.18112
804.00,18.05333
805.00,18.15344
806.00,17.99151
807.00,18.25000
808.00,18.22856
809.00,17.99288
810.00,17.97344
811.00,17.87019
812.00,18.03491
813.00,18.04277
814.00,18.14561
815.00,17.97602
816.00,18.39022
817.00,17.71117
818.00,18.09062
819.00,18.05601
820.00,17.65779
821.00,18.12358
822.00,17.74417
823.00,17.77545
824.00,17.66770
825.00,17.79536
826.00,17.76475
827.00,18.08957
828.00,17.81901
829.00,17.94865
830.00,17.50648
831.00,18.21668
832.00,17.91944
833.00,17.76648
834.00,18.38300
835.00,17.98941
836.00,17.45744
837.00,17.68765
838.00,17.83382
839.00,17.95485
840.00,17.61302
841.00,18.10282
842.00,17.57240
843.00,17.89883
844.00,17.26413
845.00,17.73366
846.00,18.74832
847.00,17.65680
848.00,16.78367
849.00,17.21439
850.00,16.59565
851.00,16.76406
852.00,18.54232
853.00,17.34017
854.00,17.13391
855.00,17.05317
856.00,17.82080
857.00,17.34906
858.00,16.12637
859.00,18.78663
860.00,18.13159
861.00,18.17777
862.00,17.79468
863.00,18.96638
864.00,16.36072
865.00,18.05917
866.00,19.70853
867.00,18.31877
868.00,18.09970
869.00,18.77836
870.00,17.17511
871.00,18.31024
872.00,22.30437
873.00,22.10241
874.00,18.38031
875.00,18.99320
876.00,20.49464
877.00,15.86655
878.00,17.49815
879.00,20.81427
880.00,16.28679
881.00,15.27430
882.00,22.02588
883.00,20.08653
884.00,17.46840
885.00,15.22693
886.00,18.78900
887.00,21.70952
888.00,15.35040
889.00,15.21375
890.00,19.87081
891.00,18.79381
892.00,21.59174
893.00,23.45651
894.00,16.14863
895.00,15.96653
896.00,17.13651
897.00,17.87855
898.00,14.18601
899.00,20.87548
900.00,20.19087
