"Resin Sapphire Slow 4 - RawData"
"Wavelength nm.","T%"
200.00,49.87335
200.20,49.64661
200.40,49.59496
200.60,49.49847
200.80,49.69552
201.00,49.87292
201.20,50.04648
201.40,50.24958
201.60,50.15728
201.80,50.45552
202.00,50.42856
202.20,50.23752
202.40,49.73305
202.60,50.24754
202.80,50.39281
203.00,50.36638
203.20,50.86843
203.40,51.02171
203.60,50.75571
203.80,50.87195
204.00,51.03218
204.20,50.46718
204.40,50.81478
204.60,50.60224
204.80,50.45698
205.00,50.86144
205.20,51.22646
205.40,51.22825
205.60,51.47796
205.80,51.49382
206.00,51.43860
206.20,51.48780
206.40,51.69755
206.60,51.87840
206.80,52.14867
207.00,52.17541
207.20,52.18605
207.40,51.90714
207.60,51.78466
207.80,51.74366
208.00,51.75189
208.20,52.00316
208.40,52.14838
208.60,52.24084
208.80,52.39177
209.00,52.48728
209.20,52.54706
209.40,52.87478
209.60,52.91636
209.80,52.94699
210.00,53.00714
210.20,52.77013
210.40,52.56986
210.60,52.45690
210.80,52.56918
211.00,52.71422
211.20,52.99801
211.40,52.92825
211.60,53.23325
211.80,53.15592
212.00,53.05717
212.20,52.79652
212.40,52.95634
212.60,52.97651
212.80,53.09145
213.00,53.18090
213.20,53.30199
213.40,53.33359
213.60,53.19061
213.80,53.06507
214.00,53.04489
214.20,53.26789
214.40,53.21031
214.60,53.48699
214.80,53.56746
215.00,53.51865
215.20,53.38054
215.40,53.25486
215.60,52.95590
215.80,53.02807
216.00,53.08361
216.20,52.98001
216.40,53.29058
216.60,53.50458
216.80,53.37479
217.00,53.13480
217.20,53.28909
217.40,52.97714
217.60,52.89207
217.80,53.07478
218.00,53.30438
218.20,53.21659
218.40,53.40974
218.60,53.55254
218.80,53.40523
219.00,53.54655
219.20,53.59479
219.40,53.54090
219.60,53.36515
219.80,53.45394
220.00,53.50276
220.20,53.66212
220.40,53.66079
220.60,53.68378
220.80,53.62515
221.00,53.44961
221.20,53.34038
221.40,53.51467
221.60,53.68127
221.80,53.78379
222.00,53.92202
222.20,54.07813
222.40,54.14593
222.60,54.18688
222.80,54.30254
223.00,54.30150
223.20,54.14475
223.40,54.04461
223.60,54.00239
223.80,53.87560
224.00,53.94556
224.20,54.12245
224.40,54.12541
224.60,54.17324
224.80,54.33818
225.00,54.18048
225.20,54.05532
225.40,54.06008
225.60,54.20411
225.80,54.21288
226.00,54.37977
226.20,54.56336
226.40,54.73607
226.60,54.43731
226.80,54.39721
227.00,54.40927
227.20,54.41813
227.40,54.28959
227.60,54.53457
227.80,54.50282
228.00,54.59107
228.20,54.58052
228.40,54.56342
228.60,54.46244
228.80,54.48935
229.00,54.42857
229.20,54.39894
229.40,54.47097
229.60,54.49826
229.80,54.56343
230.00,54.69068
230.20,54.66931
230.40,54.75409
230.60,54.82438
230.80,54.80816
231.00,54.69978
231.20,54.83651
231.40,54.88876
231.60,54.96071
231.80,55.03234
232.00,55.15978
232.20,55.19664
232.40,55.22909
232.60,55.25751
232.80,55.35908
233.00,55.31695
233.20,55.30488
233.40,55.34102
233.60,55.27842
233.80,55.23391
234.00,55.37381
234.20,55.38349
234.40,55.45295
234.60,55.54111
234.80,55.72090
235.00,55.60009
235.20,55.75351
235.40,55.69642
235.60,55.76766
235.80,55.75252
236.00,55.88012
236.20,55.86610
236.40,55.92499
236.60,56.02839
236.80,56.04235
237.00,55.98785
237.20,56.03008
237.40,56.08474
237.60,56.04153
237.80,56.03197
238.00,56.10510
238.20,56.13954
238.40,56.13909
238.60,56.17058
238.80,56.24407
239.00,56.27254
239.20,56.39475
239.40,56.39417
239.60,56.47855
239.80,56.57419
240.00,56.62097
240.20,56.59862
240.40,56.60671
240.60,56.57833
240.80,56.57712
241.00,56.72415
241.20,56.69191
241.40,56.79013
241.60,56.75010
241.80,56.71175
242.00,56.69543
242.20,56.83969
242.40,56.93047
242.60,57.06502
242.80,57.22103
243.00,57.29488
243.20,57.35912
243.40,57.39880
243.60,57.43699
243.80,57.36602
244.00,57.36261
244.20,57.34161
244.40,57.41484
244.60,57.47542
244.80,57.57626
245.00,57.58196
245.20,57.56090
245.40,57.59785
245.60,57.63490
245.80,57.64814
246.00,57.76955
246.20,57.89841
246.40,57.94784
246.60,58.06250
246.80,58.14522
247.00,58.11262
247.20,58.12712
247.40,58.12306
247.60,58.03414
247.80,58.01252
248.00,58.13971
248.20,58.10240
248.40,58.15692
248.60,58.25319
248.80,58.25660
249.00,58.23828
249.20,58.36050
249.40,58.39323
249.60,58.31175
249.80,58.38106
250.00,58.33732
250.20,58.24229
250.40,58.26902
250.60,58.36694
250.80,58.42181
251.00,58.44951
251.20,58.54894
251.40,58.63027
251.60,58.67312
251.80,58.67716
252.00,58.78184
252.20,58.83255
252.40,58.84461
252.60,58.85921
252.80,58.88466
253.00,58.90825
253.20,58.90877
253.40,58.92723
253.60,59.02011
253.80,59.04785
254.00,59.08430
254.20,59.12153
254.40,59.13005
254.60,59.11582
254.80,59.13703
255.00,59.14234
255.20,59.23005
255.40,59.25545
255.60,59.33710
255.80,59.37600
256.00,59.37153
256.20,59.38339
256.40,59.42186
256.60,59.37057
256.80,59.33176
257.00,59.33923
257.20,59.31568
257.40,59.30771
257.60,59.29382
257.80,59.42870
258.00,59.51505
258.20,59.57752
258.40,59.51370
258.60,59.49720
258.80,59.49536
259.00,59.45954
259.20,59.42832
259.40,59.50636
259.60,59.59524
259.80,59.58856
260.00,59.68559
260.20,59.72402
260.40,59.75088
260.60,59.75162
260.80,59.73235
261.00,59.74876
261.20,59.75346
261.40,59.85974
261.60,59.88318
261.80,59.88767
262.00,59.91688
262.20,59.89118
262.40,59.79243
262.60,59.86738
262.80,59.82184
263.00,59.76380
263.20,59.75578
263.40,59.80926
263.60,59.79186
263.80,59.89257
264.00,59.94642
264.20,59.93897
264.40,59.90254
264.60,59.93443
264.80,59.94042
265.00,59.84778
265.20,59.87989
265.40,59.92991
265.60,59.85846
265.80,59.83112
266.00,59.80418
266.20,59.82383
266.40,59.74851
266.60,59.75224
266.80,59.81075
267.00,59.88683
267.20,59.91168
267.40,59.98746
267.60,60.01637
267.80,59.99103
268.00,60.06317
268.20,60.12775
268.40,60.09974
268.60,60.10850
268.80,60.08809
269.00,60.09638
269.20,60.00243
269.40,60.01354
269.60,60.08760
269.80,60.11047
270.00,60.05713
270.20,60.06684
270.40,60.11223
270.60,60.03123
270.80,60.04256
271.00,60.05642
271.20,60.16976
271.40,60.21165
271.60,60.32372
271.80,60.32156
272.00,60.39580
272.20,60.40202
272.40,60.33676
272.60,60.33630
272.80,60.34726
273.00,60.25211
273.20,60.20876
273.40,60.22056
273.60,60.18770
273.80,60.27558
274.00,60.27744
274.20,60.27165
274.40,60.34116
274.60,60.36496
274.80,60.32711
275.00,60.41240
275.20,60.45410
275.40,60.39858
275.60,60.42527
275.80,60.42161
276.00,60.48616
276.20,60.53320
276.40,60.64053
276.60,60.65105
276.80,60.68127
277.00,60.65909
277.20,60.69077
277.40,60.69983
277.60,60.69039
277.80,60.74063
278.00,60.74344
278.20,60.68355
278.40,60.66123
278.60,60.72289
278.80,60.71591
279.00,60.76058
279.20,60.79242
279.40,60.80210
279.60,60.81926
279.80,60.82702
280.00,60.73408
280.20,60.70014
280.40,60.74275
280.60,60.71908
280.80,60.70955
281.00,60.83083
281.20,60.98495
281.40,60.94953
281.60,60.94140
281.80,60.97140
282.00,60.98745
282.20,60.90606
282.40,60.91300
282.60,60.87084
282.80,60.88923
283.00,60.81468
283.20,60.85972
283.40,60.89833
283.60,60.99764
283.80,61.06398
284.00,61.13648
284.20,61.13107
284.40,61.08027
284.60,61.09946
284.80,61.10896
285.00,61.07270
285.20,61.11230
285.40,61.23207
285.60,61.26842
285.80,61.20908
286.00,61.30220
286.20,61.29491
286.40,61.29209
286.60,61.30074
286.80,61.42203
287.00,61.51979
287.20,61.57091
287.40,61.60914
287.60,61.64520
287.80,61.62052
288.00,61.59000
288.20,61.58068
288.40,61.59330
288.60,61.61207
288.80,61.67795
289.00,61.71347
289.20,61.79897
289.40,61.83654
289.60,61.80480
289.80,61.81749
290.00,61.81648
290.20,61.80140
290.40,61.92581
290.60,61.99870
290.80,61.94414
291.00,61.96478
291.20,62.02142
291.40,61.94975
291.60,61.96381
291.80,62.08883
292.00,62.13698
292.20,62.11705
292.40,62.19139
292.60,62.24804
292.80,62.26755
293.00,62.27938
293.20,62.28915
293.40,62.23000
293.60,62.17837
293.80,62.14716
294.00,62.16347
294.20,62.30471
294.40,62.38452
294.60,62.44670
294.80,62.48769
295.00,62.58328
295.20,62.52155
295.40,62.49386
295.60,62.61362
295.80,62.67872
296.00,62.66912
296.20,62.73287
296.40,62.85698
296.60,62.74294
296.80,62.72048
297.00,62.76291
297.20,62.77502
297.40,62.65045
297.60,62.69382
297.80,62.71101
298.00,62.57468
298.20,62.51108
298.40,62.59221
298.60,62.68440
298.80,62.73678
299.00,62.85520
299.20,62.98261
299.40,62.93303
299.60,62.89772
299.80,62.84062
300.00,62.82641
300.20,62.76322
300.40,62.79629
300.60,62.84642
300.80,62.91090
301.00,62.93624
301.20,62.96107
301.40,62.99415
301.60,63.06710
301.80,63.12101
302.00,63.14420
302.20,63.14967
302.40,63.20971
302.60,63.15104
302.80,63.09358
303.00,63.21378
303.20,63.26229
303.40,63.25582
303.60,63.26287
303.80,63.29008
304.00,63.14558
304.20,63.12193
304.40,63.16195
304.60,63.23521
304.80,63.23072
305.00,63.26711
305.20,63.35665
305.40,63.38474
305.60,63.41226
305.80,63.42316
306.00,63.38174
306.20,63.30641
306.40,63.24113
306.60,63.22032
306.80,63.27595
307.00,63.40354
307.20,63.45098
307.40,63.51774
307.60,63.49580
307.80,63.43054
308.00,63.41066
308.20,63.38049
308.40,63.35276
308.60,63.34374
308.80,63.37194
309.00,63.39224
309.20,63.45425
309.40,63.52111
309.60,63.59012
309.80,63.70026
310.00,63.71832
310.20,63.72033
310.40,63.76302
310.60,63.68687
310.80,63.67415
311.00,63.64807
311.20,63.65742
311.40,63.58855
311.60,63.56541
311.80,63.56834
312.00,63.57072
312.20,63.51146
312.40,63.55297
312.60,63.66937
312.80,63.66422
313.00,63.71651
313.20,63.78590
313.40,63.76041
313.60,63.69085
313.80,63.74512
314.00,63.76171
314.20,63.78403
314.40,63.85893
314.60,63.91323
314.80,63.90324
315.00,63.89111
315.20,63.88801
315.40,63.90557
315.60,63.89878
315.80,63.90421
316.00,63.82936
316.20,63.88332
316.40,63.84435
316.60,63.88807
316.80,63.80676
317.00,63.87327
317.20,63.89531
317.40,63.91680
317.60,63.94780
317.80,64.03488
318.00,64.06993
318.20,63.95321
318.40,63.93951
318.60,63.86797
318.80,63.86300
319.00,63.82308
319.20,63.88621
319.40,63.97751
319.60,64.01112
319.80,64.05737
320.00,64.00967
320.20,64.04442
320.40,64.00056
320.60,64.02142
320.80,64.03791
321.00,64.16059
321.20,64.19421
321.40,64.23839
321.60,64.22076
321.80,64.27242
322.00,64.26125
322.20,64.23302
322.40,64.18547
322.60,64.21342
322.80,64.14250
323.00,64.21022
323.20,64.26165
323.40,64.37165
323.60,64.43757
323.80,64.48572
324.00,64.49170
324.20,64.53697
324.40,64.42429
324.60,64.46421
324.80,64.44389
325.00,64.53062
325.20,64.53533
325.40,64.63615
325.60,64.64391
325.80,64.65588
326.00,64.57606
326.20,64.56885
326.40,64.55793
326.60,64.55392
326.80,64.56307
327.00,64.50441
327.20,64.44936
327.40,64.46902
327.60,64.50694
327.80,64.57239
328.00,64.56313
328.20,64.67877
328.40,64.59099
328.60,64.65577
328.80,64.67571
329.00,64.76609
329.20,64.73808
329.40,64.87186
329.60,64.84419
329.80,64.84982
330.00,64.93800
330.20,64.92851
330.40,64.83467
330.60,64.76629
330.80,64.75816
331.00,64.76056
331.20,64.74566
331.40,64.87702
331.60,64.92454
331.80,64.99413
332.00,64.85892
332.20,64.91377
332.40,64.87560
332.60,64.81645
332.80,64.78407
333.00,64.80820
333.20,64.77036
333.40,64.81252
333.60,64.89762
333.80,64.90669
334.00,65.00130
334.20,65.07008
334.40,65.14084
334.60,65.18525
334.80,65.15704
335.00,65.17380
335.20,65.16333
335.40,64.97588
335.60,64.95037
335.80,65.02299
336.00,65.00260
336.20,64.94955
336.40,65.06996
336.60,65.07872
336.80,65.06107
337.00,64.99375
337.20,65.10028
337.40,65.00577
337.60,65.08059
337.80,65.11246
338.00,65.26037
338.20,65.28597
338.40,65.42450
338.60,65.37775
338.80,65.25893
339.00,65.22685
339.20,65.22654
339.40,65.20393
339.60,65.11964
339.80,65.25767
340.00,65.32196
340.20,65.36127
340.40,65.34391
340.60,65.45293
340.80,65.43464
341.00,65.40178
341.20,65.31796
341.40,65.37957
341.60,65.29577
341.80,65.30960
342.00,65.39974
342.20,65.44359
342.40,65.44295
342.60,65.55467
342.80,65.54228
343.00,65.50023
343.20,65.49410
343.40,65.47453
343.60,65.45032
343.80,65.41245
344.00,65.29903
344.20,65.33158
344.40,65.39493
344.60,65.39445
344.80,65.49742
345.00,65.54652
345.20,65.59611
345.40,65.56804
345.60,65.58675
345.80,65.57652
346.00,65.63374
346.20,65.62276
346.40,65.61495
346.60,65.65940
346.80,65.68577
347.00,65.64867
347.20,65.64901
347.40,65.70726
347.60,65.65086
347.80,65.57806
348.00,65.59958
348.20,65.64789
348.40,65.60066
348.60,65.63235
348.80,65.66632
349.00,65.67517
349.20,65.59832
349.40,65.62229
349.60,65.64195
349.80,65.73573
350.00,65.74144
350.20,65.73489
350.40,65.75618
350.60,65.79077
350.80,65.73775
351.00,65.81044
351.20,65.86668
351.40,65.86022
351.60,65.84337
351.80,65.82031
352.00,65.78645
352.20,65.74072
352.40,65.77490
352.60,65.78628
352.80,65.78233
353.00,65.85056
353.20,65.88001
353.40,65.85014
353.60,65.90666
353.80,65.88117
354.00,65.82639
354.20,65.83717
354.40,65.85558
354.60,65.78343
354.80,65.84523
355.00,65.85492
355.20,65.87601
355.40,65.89426
355.60,65.89571
355.80,65.87138
356.00,65.88438
356.20,65.87908
356.40,65.86003
356.60,65.86638
356.80,65.91750
357.00,65.86223
357.20,65.88686
357.40,65.90830
357.60,65.95688
357.80,65.93827
358.00,66.03306
358.20,65.96606
358.40,65.90462
358.60,65.86715
358.80,65.82298
359.00,65.77608
359.20,65.80952
359.40,65.88125
359.60,65.86582
359.80,65.88569
360.00,65.88894
360.20,65.93443
360.40,65.89964
360.60,65.93947
360.80,65.97311
361.00,65.95042
361.20,65.90428
361.40,65.91097
361.60,65.85380
361.80,65.85813
362.00,65.89652
362.20,65.92579
362.40,65.96538
362.60,66.02239
362.80,66.03508
363.00,66.01363
363.20,65.98942
363.40,65.91974
363.60,65.90242
363.80,65.89622
364.00,65.91011
364.20,65.92616
364.40,65.96123
364.60,65.98990
364.80,66.00038
365.00,66.00464
365.20,65.96152
365.40,65.99340
365.60,65.96472
365.80,65.89707
366.00,65.89761
366.20,65.95181
366.40,65.90214
366.60,65.92467
366.80,66.01598
367.00,66.03144
367.20,66.01146
367.40,66.07149
367.60,66.05431
367.80,65.98112
368.00,65.99886
368.20,66.02475
368.40,66.03062
368.60,65.97972
368.80,66.05243
369.00,66.02966
369.20,66.00785
369.40,65.99822
369.60,66.09443
369.80,66.06699
370.00,66.10982
370.20,66.10320
370.40,66.14659
370.60,66.12859
370.80,66.15909
371.00,66.04620
371.20,66.02110
371.40,65.94082
371.60,65.96189
371.80,65.92952
372.00,66.03661
372.20,66.10731
372.40,66.14894
372.60,66.11947
372.80,66.12605
373.00,66.10427
373.20,66.11367
373.40,66.15502
373.60,66.19651
373.80,66.23434
374.00,66.23218
374.20,66.27452
374.40,66.25472
374.60,66.21393
374.80,66.21909
375.00,66.27787
375.20,66.29439
375.40,66.29860
375.60,66.36077
375.80,66.36040
376.00,66.31666
376.20,66.25793
376.40,66.24792
376.60,66.22574
376.80,66.19767
377.00,66.18303
377.20,66.17401
377.40,66.19457
377.60,66.19229
377.80,66.20799
378.00,66.25259
378.20,66.28265
378.40,66.25966
378.60,66.22881
378.80,66.27522
379.00,66.21926
379.20,66.25428
379.40,66.26454
379.60,66.34334
379.80,66.33461
380.00,66.35792
380.20,66.33254
380.40,66.34770
380.60,66.31022
380.80,66.29832
381.00,66.32445
381.20,66.32029
381.40,66.30960
381.60,66.31250
381.80,66.30018
382.00,66.30425
382.20,66.27691
382.40,66.28445
382.60,66.28777
382.80,66.27095
383.00,66.29323
383.20,66.31246
383.40,66.30034
383.60,66.30546
383.80,66.35344
384.00,66.36729
384.20,66.39892
384.40,66.41500
384.60,66.38924
384.80,66.37526
385.00,66.32265
385.20,66.34434
385.40,66.32607
385.60,66.34126
385.80,66.33804
386.00,66.39565
386.20,66.36288
386.40,66.46570
386.60,66.50642
386.80,66.54360
387.00,66.51361
387.20,66.54420
387.40,66.49151
387.60,66.47202
387.80,66.42222
388.00,66.43255
388.20,66.39151
388.40,66.36470
388.60,66.34540
388.80,66.37548
389.00,66.35755
389.20,66.35454
389.40,66.39478
389.60,66.39176
389.80,66.39418
390.00,66.40422
390.20,66.42285
390.40,66.38975
390.60,66.43547
390.80,66.43669
391.00,66.43633
391.20,66.44136
391.40,66.44615
391.60,66.41768
391.80,66.46336
392.00,66.44228
392.20,66.44346
392.40,66.44976
392.60,66.45949
392.80,66.45322
393.00,66.53343
393.20,66.54122
393.40,66.54401
393.60,66.56550
393.80,66.54565
394.00,66.49016
394.20,66.52360
394.40,66.53947
394.60,66.48157
394.80,66.48909
395.00,66.48774
395.20,66.47122
395.40,66.48431
395.60,66.54372
395.80,66.51772
396.00,66.53369
396.20,66.57149
396.40,66.61348
396.60,66.61212
396.80,66.62416
397.00,66.61164
397.20,66.59989
397.40,66.55171
397.60,66.59188
397.80,66.63671
398.00,66.65206
398.20,66.66428
398.40,66.70380
398.60,66.67875
398.80,66.64128
399.00,66.66333
399.20,66.68150
399.40,66.69208
399.60,66.68240
399.80,66.72878
400.00,66.76704
400.20,66.75178
400.40,66.74590
400.60,66.76649
400.80,66.72081
401.00,66.70641
401.20,66.69722
401.40,66.69834
401.60,66.71816
401.80,66.72958
402.00,66.73546
402.20,66.78129
402.40,66.78094
402.60,66.79198
402.80,66.84372
403.00,66.83269
403.20,66.81467
403.40,66.79850
403.60,66.79632
403.80,66.77574
404.00,66.80813
404.20,66.85162
404.40,66.86142
404.60,66.88393
404.80,66.92039
405.00,66.89326
405.20,66.85263
405.40,66.87911
405.60,66.85097
405.80,66.82872
406.00,66.82760
406.20,66.84813
406.40,66.84597
406.60,66.90300
406.80,66.90167
407.00,66.90753
407.20,66.87714
407.40,66.90013
407.60,66.85426
407.80,66.88986
408.00,66.91586
408.20,66.95225
408.40,66.92138
408.60,66.95076
408.80,66.92086
409.00,66.93987
409.20,66.95156
409.40,66.98706
409.60,66.97903
409.80,66.99701
410.00,67.02173
410.20,67.00140
410.40,67.00413
410.60,67.01835
410.80,67.06297
411.00,67.09082
411.20,67.12369
411.40,67.13461
411.60,67.17253
411.80,67.18705
412.00,67.18459
412.20,67.22775
412.40,67.23121
412.60,67.21933
412.80,67.17535
413.00,67.16887
413.20,67.12431
413.40,67.10712
413.60,67.09737
413.80,67.10992
414.00,67.09918
414.20,67.10106
414.40,67.15242
414.60,67.18370
414.80,67.24020
415.00,67.23311
415.20,67.29683
415.40,67.29708
415.60,67.28758
415.80,67.30734
416.00,67.36367
416.20,67.36630
416.40,67.38069
416.60,67.42884
416.80,67.40840
417.00,67.38594
417.20,67.40178
417.40,67.39830
417.60,67.43789
417.80,67.47124
418.00,67.52117
418.20,67.53615
418.40,67.57884
418.60,67.56788
418.80,67.59971
419.00,67.62868
419.20,67.66210
419.40,67.69426
419.60,67.71690
419.80,67.70958
420.00,67.70995
420.20,67.70030
420.40,67.71183
420.60,67.73605
420.80,67.77510
421.00,67.81825
421.20,67.87747
421.40,67.84101
421.60,67.82491
421.80,67.83097
422.00,67.84859
422.20,67.84373
422.40,67.90211
422.60,67.92063
422.80,67.96460
423.00,67.97811
423.20,68.00339
423.40,68.04034
423.60,68.08069
423.80,68.08516
424.00,68.08946
424.20,68.10131
424.40,68.13960
424.60,68.17223
424.80,68.18984
425.00,68.23557
425.20,68.25324
425.40,68.25262
425.60,68.27755
425.80,68.27791
426.00,68.25505
426.20,68.28305
426.40,68.30246
426.60,68.29826
426.80,68.30894
427.00,68.34862
427.20,68.36472
427.40,68.38527
427.60,68.39085
427.80,68.43314
428.00,68.42427
428.20,68.41960
428.40,68.42778
428.60,68.46077
428.80,68.46096
429.00,68.47079
429.20,68.47948
429.40,68.48032
429.60,68.48627
429.80,68.46885
430.00,68.49183
430.20,68.49144
430.40,68.48155
430.60,68.50376
430.80,68.54545
431.00,68.54226
431.20,68.54507
431.40,68.59763
431.60,68.59615
431.80,68.62712
432.00,68.66044
432.20,68.68177
432.40,68.65053
432.60,68.59404
432.80,68.55724
433.00,68.53487
433.20,68.52055
433.40,68.53107
433.60,68.58556
433.80,68.62805
434.00,68.67713
434.20,68.69346
434.40,68.69746
434.60,68.70260
434.80,68.67610
435.00,68.65630
435.20,68.69147
435.40,68.71493
435.60,68.73625
435.80,68.75987
436.00,68.77629
436.20,68.75609
436.40,68.77776
436.60,68.78735
436.80,68.76276
437.00,68.76613
437.20,68.78121
437.40,68.77493
437.60,68.80131
437.80,68.83867
438.00,68.82557
438.20,68.80916
438.40,68.81485
438.60,68.78392
438.80,68.77964
439.00,68.80772
439.20,68.86986
439.40,68.88902
439.60,68.89989
439.80,68.88722
440.00,68.88866
440.20,68.86578
440.40,68.85490
440.60,68.88621
440.80,68.89473
441.00,68.87695
441.20,68.89732
441.40,68.89789
441.60,68.88672
441.80,68.90305
442.00,68.91668
442.20,68.90754
442.40,68.92348
442.60,68.90558
442.80,68.91670
443.00,68.93980
443.20,68.93172
443.40,68.95028
443.60,68.97705
443.80,68.97653
444.00,68.96688
444.20,68.96694
444.40,68.94362
444.60,68.90544
444.80,68.92277
445.00,68.93563
445.20,68.94859
445.40,68.95125
445.60,68.99782
445.80,68.95276
446.00,68.94803
446.20,68.92672
446.40,68.90945
446.60,68.92222
446.80,68.97854
447.00,68.98820
447.20,69.02897
447.40,69.05921
447.60,69.05888
447.80,69.04131
448.00,69.04122
448.20,69.03771
448.40,69.03810
448.60,69.03262
448.80,69.03362
449.00,69.04886
449.20,69.04429
449.40,69.05318
449.60,69.04146
449.80,69.03788
450.00,69.05885
450.20,69.08362
450.40,69.08547
450.60,69.09657
450.80,69.10616
451.00,69.06563
451.20,69.05825
451.40,69.03427
451.60,69.04744
451.80,69.07668
452.00,69.09313
452.20,69.07598
452.40,69.11210
452.60,69.10174
452.80,69.09668
453.00,69.09221
453.20,69.10256
453.40,69.10430
453.60,69.12357
453.80,69.13893
454.00,69.16732
454.20,69.16798
454.40,69.16506
454.60,69.15663
454.80,69.12523
455.00,69.10598
455.20,69.12079
455.40,69.15098
455.60,69.14634
455.80,69.17700
456.00,69.17180
456.20,69.17416
456.40,69.18036
456.60,69.20006
456.80,69.20733
457.00,69.23723
457.20,69.27633
457.40,69.23403
457.60,69.22761
457.80,69.20708
458.00,69.20584
458.20,69.20373
458.40,69.23195
458.60,69.22382
458.80,69.23506
459.00,69.23640
459.20,69.21234
459.40,69.21424
459.60,69.22894
459.80,69.24561
460.00,69.24948
460.20,69.24450
460.40,69.27155
460.60,69.27837
460.80,69.28329
461.00,69.26799
461.20,69.27704
461.40,69.25182
461.60,69.23894
461.80,69.23634
462.00,69.25734
462.20,69.25928
462.40,69.26501
462.60,69.27555
462.80,69.27185
463.00,69.27383
463.20,69.27516
463.40,69.28002
463.60,69.26787
463.80,69.28831
464.00,69.29579
464.20,69.30209
464.40,69.33136
464.60,69.37629
464.80,69.33697
465.00,69.35229
465.20,69.35853
465.40,69.32684
465.60,69.32710
465.80,69.34553
466.00,69.34157
466.20,69.35753
466.40,69.37551
466.60,69.40039
466.80,69.40041
467.00,69.40133
467.20,69.39040
467.40,69.38497
467.60,69.38381
467.80,69.40986
468.00,69.39583
468.20,69.38569
468.40,69.37894
468.60,69.35979
468.80,69.33246
469.00,69.35487
469.20,69.35718
469.40,69.34944
469.60,69.33561
469.80,69.34792
470.00,69.33438
470.20,69.36501
470.40,69.38571
470.60,69.38574
470.80,69.41220
471.00,69.42204
471.20,69.41421
471.40,69.42774
471.60,69.44283
471.80,69.42018
472.00,69.43788
472.20,69.43060
472.40,69.42573
472.60,69.42987
472.80,69.45223
473.00,69.47086
473.20,69.47514
473.40,69.47706
473.60,69.49928
473.80,69.47285
474.00,69.43498
474.20,69.41951
474.40,69.42082
474.60,69.39393
474.80,69.43195
475.00,69.42746
475.20,69.44414
475.40,69.42208
475.60,69.45889
475.80,69.45773
476.00,69.47887
476.20,69.48497
476.40,69.52321
476.60,69.48905
476.80,69.47602
477.00,69.47103
477.20,69.45559
477.40,69.44069
477.60,69.43406
477.80,69.44605
478.00,69.45460
478.20,69.47547
478.40,69.48192
478.60,69.51656
478.80,69.50896
479.00,69.49683
479.20,69.49332
479.40,69.47157
479.60,69.46418
479.80,69.47280
480.00,69.48808
480.20,69.49737
480.40,69.53508
480.60,69.52024
480.80,69.52085
481.00,69.52651
481.20,69.52250
481.40,69.50064
481.60,69.49741
481.80,69.48318
482.00,69.48045
482.20,69.48026
482.40,69.46871
482.60,69.47721
482.80,69.49869
483.00,69.47965
483.20,69.48187
483.40,69.49773
483.60,69.53024
483.80,69.52012
484.00,69.55110
484.20,69.56120
484.40,69.55373
484.60,69.52702
484.80,69.51985
485.00,69.50477
485.20,69.51164
485.40,69.51621
485.60,69.52784
485.80,69.53098
486.00,69.55605
486.20,69.52831
486.40,69.54544
486.60,69.52569
486.80,69.53779
487.00,69.50689
487.20,69.52342
487.40,69.50493
487.60,69.51245
487.80,69.50660
488.00,69.51112
488.20,69.50999
488.40,69.54158
488.60,69.56193
488.80,69.56059
489.00,69.56100
489.20,69.57201
489.40,69.56125
489.60,69.56456
489.80,69.56642
490.00,69.56095
490.20,69.56447
490.40,69.56572
490.60,69.57019
490.80,69.60787
491.00,69.61802
491.20,69.63038
491.40,69.63978
491.60,69.62133
491.80,69.62065
492.00,69.64527
492.20,69.63503
492.40,69.62672
492.60,69.64141
492.80,69.61094
493.00,69.59084
493.20,69.59562
493.40,69.61790
493.60,69.61370
493.80,69.61924
494.00,69.62713
494.20,69.62007
494.40,69.60016
494.60,69.60342
494.80,69.62942
495.00,69.62896
495.20,69.63784
495.40,69.63474
495.60,69.62376
495.80,69.61383
496.00,69.60885
496.20,69.59700
496.40,69.59921
496.60,69.60330
496.80,69.59026
497.00,69.59910
497.20,69.60645
497.40,69.60574
497.60,69.61595
497.80,69.62667
498.00,69.62910
498.20,69.61553
498.40,69.64056
498.60,69.63209
498.80,69.63561
499.00,69.61383
499.20,69.63332
499.40,69.65155
499.60,69.66730
499.80,69.66749
500.00,69.68628
500.20,69.67444
500.40,69.63788
500.60,69.62141
500.80,69.61138
501.00,69.62239
501.20,69.64452
501.40,69.62805
501.60,69.63942
501.80,69.64518
502.00,69.64176
502.20,69.61937
502.40,69.65119
502.60,69.65994
502.80,69.66853
503.00,69.68337
503.20,69.68179
503.40,69.66191
503.60,69.64793
503.80,69.62664
504.00,69.61242
504.20,69.61684
504.40,69.64138
504.60,69.63465
504.80,69.64932
505.00,69.66919
505.20,69.67238
505.40,69.66450
505.60,69.68566
505.80,69.69117
506.00,69.68198
506.20,69.68256
506.40,69.67483
506.60,69.66808
506.80,69.66383
507.00,69.64495
507.20,69.64222
507.40,69.64950
507.60,69.65069
507.80,69.65049
508.00,69.65920
508.20,69.66365
508.40,69.64101
508.60,69.66811
508.80,69.67744
509.00,69.69572
509.20,69.71523
509.40,69.73646
509.60,69.73191
509.80,69.71580
510.00,69.71193
510.20,69.70670
510.40,69.71204
510.60,69.70392
510.80,69.71484
511.00,69.71500
511.20,69.71299
511.40,69.71773
511.60,69.71318
511.80,69.70608
512.00,69.68831
512.20,69.67663
512.40,69.67441
512.60,69.66916
512.80,69.69057
513.00,69.68479
513.20,69.68980
513.40,69.68275
513.60,69.69221
513.80,69.67700
514.00,69.70362
514.20,69.68582
514.40,69.70630
514.60,69.70670
514.80,69.69898
515.00,69.68081
515.20,69.69811
515.40,69.68120
515.60,69.68296
515.80,69.69041
516.00,69.69805
516.20,69.69173
516.40,69.67894
516.60,69.68849
516.80,69.71343
517.00,69.71236
517.20,69.72345
517.40,69.74915
517.60,69.74211
517.80,69.73206
518.00,69.73912
518.20,69.74233
518.40,69.73972
518.60,69.73982
518.80,69.74272
519.00,69.75719
519.20,69.75405
519.40,69.74660
519.60,69.74428
519.80,69.72000
520.00,69.71492
520.20,69.73251
520.40,69.72479
520.60,69.71951
520.80,69.73047
521.00,69.71270
521.20,69.70356
521.40,69.70673
521.60,69.69509
521.80,69.69030
522.00,69.69290
522.20,69.69678
522.40,69.68606
522.60,69.67759
522.80,69.69569
523.00,69.69271
523.20,69.67763
523.40,69.69948
523.60,69.72692
523.80,69.72865
524.00,69.72484
524.20,69.71681
524.40,69.69997
524.60,69.68435
524.80,69.67449
525.00,69.69855
525.20,69.70217
525.40,69.72215
525.60,69.73160
525.80,69.75322
526.00,69.74269
526.20,69.75749
526.40,69.75441
526.60,69.73869
526.80,69.71638
527.00,69.69600
527.20,69.71363
527.40,69.67678
527.60,69.67085
527.80,69.66630
528.00,69.68120
528.20,69.66509
528.40,69.67936
528.60,69.70082
528.80,69.69606
529.00,69.71987
529.20,69.71539
529.40,69.74226
529.60,69.74351
529.80,69.77512
530.00,69.75635
530.20,69.78095
530.40,69.78160
530.60,69.79103
530.80,69.76930
531.00,69.75238
531.20,69.73922
531.40,69.71678
531.60,69.71217
531.80,69.70692
532.00,69.73000
532.20,69.74304
532.40,69.75436
532.60,69.74210
532.80,69.73490
533.00,69.72648
533.20,69.69597
533.40,69.71419
533.60,69.72134
533.80,69.72973
534.00,69.72217
534.20,69.75511
534.40,69.74499
534.60,69.75657
534.80,69.79528
535.00,69.79305
535.20,69.78689
535.40,69.78895
535.60,69.78633
535.80,69.77233
536.00,69.77677
536.20,69.80256
536.40,69.78814
536.60,69.77481
536.80,69.75930
537.00,69.77714
537.20,69.73834
537.40,69.77493
537.60,69.80168
537.80,69.79128
538.00,69.80022
538.20,69.79702
538.40,69.76116
538.60,69.74383
538.80,69.75911
539.00,69.74540
539.20,69.74446
539.40,69.73936
539.60,69.73324
539.80,69.74065
540.00,69.76160
540.20,69.78038
540.40,69.78428
540.60,69.79123
540.80,69.78108
541.00,69.76190
541.20,69.78012
541.40,69.78653
541.60,69.78829
541.80,69.79113
542.00,69.77672
542.20,69.75176
542.40,69.75173
542.60,69.76137
542.80,69.78551
543.00,69.79632
543.20,69.81958
543.40,69.83822
543.60,69.84141
543.80,69.80890
544.00,69.83213
544.20,69.80372
544.40,69.79488
544.60,69.78085
544.80,69.76125
545.00,69.73713
545.20,69.74199
545.40,69.71837
545.60,69.71229
545.80,69.73795
546.00,69.76240
546.20,69.75972
546.40,69.79839
546.60,69.79302
546.80,69.78660
547.00,69.76185
547.20,69.76652
547.40,69.75046
547.60,69.79405
547.80,69.80809
548.00,69.83746
548.20,69.83182
548.40,69.85494
548.60,69.80977
548.80,69.82692
549.00,69.81206
549.20,69.83539
549.40,69.81590
549.60,69.83196
549.80,69.82831
550.00,69.82534
550.20,69.82724
550.40,69.81542
550.60,69.82283
550.80,69.82079
551.00,69.81607
551.20,69.79696
551.40,69.79011
551.60,69.78850
551.80,69.78146
552.00,69.78667
552.20,69.80793
552.40,69.82563
552.60,69.81378
552.80,69.79122
553.00,69.77999
553.20,69.76765
553.40,69.77562
553.60,69.79144
553.80,69.82155
554.00,69.83624
554.20,69.82356
554.40,69.81696
554.60,69.80221
554.80,69.79762
555.00,69.79465
555.20,69.81840
555.40,69.82397
555.60,69.82899
555.80,69.84413
556.00,69.83479
556.20,69.82430
556.40,69.83386
556.60,69.83547
556.80,69.81782
557.00,69.82531
557.20,69.81781
557.40,69.80851
557.60,69.81398
557.80,69.78846
558.00,69.77501
558.20,69.77736
558.40,69.79027
558.60,69.79085
558.80,69.79591
559.00,69.82051
559.20,69.82844
559.40,69.81833
559.60,69.83501
559.80,69.85976
560.00,69.86378
560.20,69.86517
560.40,69.86740
560.60,69.82552
560.80,69.82290
561.00,69.82749
561.20,69.81277
561.40,69.81642
561.60,69.82625
561.80,69.83866
562.00,69.84746
562.20,69.85115
562.40,69.84401
562.60,69.84708
562.80,69.84320
563.00,69.82366
563.20,69.84897
563.40,69.85977
563.60,69.88676
563.80,69.87408
564.00,69.87602
564.20,69.87865
564.40,69.86897
564.60,69.85396
564.80,69.86301
565.00,69.87492
565.20,69.87942
565.40,69.89628
565.60,69.90551
565.80,69.90812
566.00,69.91233
566.20,69.88741
566.40,69.86576
566.60,69.86482
566.80,69.86716
567.00,69.85359
567.20,69.87111
567.40,69.86339
567.60,69.87637
567.80,69.86381
568.00,69.84789
568.20,69.82809
568.40,69.84208
568.60,69.83928
568.80,69.84959
569.00,69.86482
569.20,69.85242
569.40,69.86464
569.60,69.88168
569.80,69.86918
570.00,69.86814
570.20,69.87984
570.40,69.86003
570.60,69.83632
570.80,69.82732
571.00,69.85051
571.20,69.86250
571.40,69.90566
571.60,69.90127
571.80,69.91917
572.00,69.89815
572.20,69.90780
572.40,69.89792
572.60,69.91376
572.80,69.91310
573.00,69.93697
573.20,69.91853
573.40,69.90875
573.60,69.89683
573.80,69.90830
574.00,69.88729
574.20,69.90146
574.40,69.90345
574.60,69.93223
574.80,69.94324
575.00,69.96401
575.20,69.98100
575.40,69.98659
575.60,69.98073
575.80,69.98296
576.00,69.96608
576.20,69.95613
576.40,69.93776
576.60,69.91404
576.80,69.90067
577.00,69.92557
577.20,69.90523
577.40,69.90855
577.60,69.90926
577.80,69.91676
578.00,69.91744
578.20,69.92679
578.40,69.93889
578.60,69.95491
578.80,69.94824
579.00,69.91830
579.20,69.90775
579.40,69.90183
579.60,69.89024
579.80,69.88861
580.00,69.89864
580.20,69.92058
580.40,69.90965
580.60,69.92109
580.80,69.90226
581.00,69.89595
581.20,69.87166
581.40,69.87945
581.60,69.86852
581.80,69.89110
582.00,69.90157
582.20,69.94711
582.40,69.95689
582.60,69.97269
582.80,69.97226
583.00,69.96608
583.20,69.92897
583.40,69.92589
583.60,69.90495
583.80,69.92234
584.00,69.93948
584.20,69.96427
584.40,69.97110
584.60,69.99244
584.80,69.99716
585.00,69.99004
585.20,69.99559
585.40,69.99218
585.60,69.98109
585.80,69.96387
586.00,69.95232
586.20,69.94838
586.40,69.96649
586.60,69.95780
586.80,69.94554
587.00,69.97440
587.20,69.97391
587.40,69.97809
587.60,70.00166
587.80,70.03455
588.00,70.02049
588.20,70.00413
588.40,70.00361
588.60,70.00687
588.80,69.98182
589.00,69.98826
589.20,70.01220
589.40,69.99917
589.60,69.98463
589.80,70.01408
590.00,70.01899
590.20,70.00181
590.40,70.00359
590.60,70.01520
590.80,69.99447
591.00,70.01073
591.20,70.03609
591.40,70.04452
591.60,70.04455
591.80,70.07427
592.00,70.06966
592.20,70.07604
592.40,70.04917
592.60,70.04569
592.80,70.03621
593.00,70.04488
593.20,70.02891
593.40,70.03813
593.60,70.03710
593.80,70.06689
594.00,70.05253
594.20,70.06297
594.40,70.09221
594.60,70.12419
594.80,70.07768
595.00,70.08675
595.20,70.08011
595.40,70.07912
595.60,70.07007
595.80,70.08644
596.00,70.10286
596.20,70.12620
596.40,70.11899
596.60,70.13102
596.80,70.14134
597.00,70.13569
597.20,70.12435
597.40,70.11879
597.60,70.12142
597.80,70.09992
598.00,70.09727
598.20,70.10413
598.40,70.11061
598.60,70.11818
598.80,70.15812
599.00,70.13032
599.20,70.13097
599.40,70.12733
599.60,70.11923
599.80,70.08890
600.00,70.09958
600.20,70.10223
600.40,70.13293
600.60,70.11994
600.80,70.14141
601.00,70.16786
601.20,70.17654
601.40,70.17596
601.60,70.15621
601.80,70.15944
602.00,70.16353
602.20,70.15430
602.40,70.13241
602.60,70.16026
602.80,70.15747
603.00,70.14068
603.20,70.14635
603.40,70.17449
603.60,70.19852
603.80,70.19079
604.00,70.19637
604.20,70.19359
604.40,70.16085
604.60,70.15507
604.80,70.16091
605.00,70.17081
605.20,70.17560
605.40,70.19842
605.60,70.18684
605.80,70.20862
606.00,70.20645
606.20,70.20699
606.40,70.20016
606.60,70.21409
606.80,70.20155
607.00,70.19812
607.20,70.18940
607.40,70.20421
607.60,70.19958
607.80,70.20233
608.00,70.19135
608.20,70.21888
608.40,70.21956
608.60,70.24708
608.80,70.26399
609.00,70.29698
609.20,70.27314
609.40,70.29110
609.60,70.28114
609.80,70.26831
610.00,70.25563
610.20,70.26612
610.40,70.23075
610.60,70.20636
610.80,70.23479
611.00,70.23813
611.20,70.23883
611.40,70.28546
611.60,70.29628
611.80,70.25599
612.00,70.24829
612.20,70.26123
612.40,70.22386
612.60,70.20693
612.80,70.22225
613.00,70.26125
613.20,70.24524
613.40,70.26672
613.60,70.31160
613.80,70.32489
614.00,70.31292
614.20,70.32612
614.40,70.32672
614.60,70.30994
614.80,70.31890
615.00,70.30028
615.20,70.31724
615.40,70.30702
615.60,70.31064
615.80,70.28983
616.00,70.29539
616.20,70.29915
616.40,70.31010
616.60,70.33017
616.80,70.33586
617.00,70.33488
617.20,70.32956
617.40,70.33967
617.60,70.32384
617.80,70.32619
618.00,70.33751
618.20,70.33197
618.40,70.32072
618.60,70.31696
618.80,70.33768
619.00,70.34293
619.20,70.34209
619.40,70.33913
619.60,70.33027
619.80,70.31288
620.00,70.31167
620.20,70.30634
620.40,70.31904
620.60,70.33291
620.80,70.35365
621.00,70.36558
621.20,70.38328
621.40,70.39253
621.60,70.38613
621.80,70.34999
622.00,70.34432
622.20,70.33855
622.40,70.31416
622.60,70.32726
622.80,70.37795
623.00,70.36510
623.20,70.37478
623.40,70.41485
623.60,70.41011
623.80,70.38690
624.00,70.40356
624.20,70.41011
624.40,70.39188
624.60,70.40877
624.80,70.41194
625.00,70.40569
625.20,70.42437
625.40,70.44289
625.60,70.45654
625.80,70.49890
626.00,70.51713
626.20,70.50392
626.40,70.50326
626.60,70.47996
626.80,70.47541
627.00,70.47203
627.20,70.47217
627.40,70.47866
627.60,70.49664
627.80,70.46353
628.00,70.45851
628.20,70.45918
628.40,70.47563
628.60,70.50017
628.80,70.49519
629.00,70.50096
629.20,70.51206
629.40,70.52462
629.60,70.50117
629.80,70.54602
630.00,70.55922
630.20,70.53691
630.40,70.47610
630.60,70.47752
630.80,70.45738
631.00,70.45833
631.20,70.47899
631.40,70.50035
631.60,70.52547
631.80,70.53517
632.00,70.53825
632.20,70.55111
632.40,70.55333
632.60,70.54605
632.80,70.54555
633.00,70.56360
633.20,70.57015
633.40,70.59023
633.60,70.56911
633.80,70.57855
634.00,70.57013
634.20,70.55821
634.40,70.58661
634.60,70.61603
634.80,70.62575
635.00,70.63748
635.20,70.64447
635.40,70.63718
635.60,70.61716
635.80,70.63994
636.00,70.66219
636.20,70.68730
636.40,70.69888
636.60,70.71010
636.80,70.68588
637.00,70.67332
637.20,70.66673
637.40,70.64748
637.60,70.66683
637.80,70.67845
638.00,70.68286
638.20,70.70305
638.40,70.71391
638.60,70.70391
638.80,70.72417
639.00,70.74341
639.20,70.72672
639.40,70.73721
639.60,70.76155
639.80,70.72691
640.00,70.72740
640.20,70.72548
640.40,70.73569
640.60,70.73073
640.80,70.75029
641.00,70.74406
641.20,70.76756
641.40,70.77218
641.60,70.79263
641.80,70.79838
642.00,70.82102
642.20,70.84135
642.40,70.83681
642.60,70.84072
642.80,70.85741
643.00,70.85211
643.20,70.85217
643.40,70.87511
643.60,70.87287
643.80,70.84477
644.00,70.85023
644.20,70.86351
644.40,70.86348
644.60,70.86815
644.80,70.90597
645.00,70.91268
645.20,70.90338
645.40,70.91649
645.60,70.94151
645.80,70.94603
646.00,70.93723
646.20,70.92253
646.40,70.93105
646.60,70.91721
646.80,70.93787
647.00,70.97692
647.20,70.98824
647.40,70.98244
647.60,70.95647
647.80,70.93865
648.00,70.91045
648.20,70.90523
648.40,70.90682
648.60,70.93675
648.80,70.96993
649.00,70.97206
649.20,71.01692
649.40,71.02419
649.60,71.07180
649.80,71.04636
650.00,71.05308
650.20,71.03086
650.40,71.05135
650.60,71.02299
650.80,71.05208
651.00,71.03665
651.20,71.05966
651.40,71.05139
651.60,71.08763
651.80,71.08284
652.00,71.14847
652.20,71.13857
652.40,71.14895
652.60,71.11896
652.80,71.13290
653.00,71.11824
653.20,71.08879
653.40,71.05156
653.60,71.06348
653.80,71.03879
654.00,71.04465
654.20,71.10018
654.40,71.15896
654.60,71.16877
654.80,71.18992
655.00,71.17873
655.20,71.15141
655.40,71.12706
655.60,71.12520
655.80,71.12215
656.00,71.11697
656.20,71.13857
656.40,71.17273
656.60,71.18639
656.80,71.26024
657.00,71.28625
657.20,71.32941
657.40,71.31598
657.60,71.31526
657.80,71.27748
658.00,71.29421
658.20,71.29299
658.40,71.28710
658.60,71.30094
658.80,71.32547
659.00,71.31468
659.20,71.29506
659.40,71.33437
659.60,71.33282
659.80,71.32488
660.00,71.32165
660.20,71.33092
660.40,71.29747
660.60,71.32162
660.80,71.32663
661.00,71.33116
661.20,71.33089
661.40,71.36214
661.60,71.34926
661.80,71.37865
662.00,71.41716
662.20,71.41100
662.40,71.41808
662.60,71.44887
662.80,71.42268
663.00,71.41715
663.20,71.43372
663.40,71.43705
663.60,71.44612
663.80,71.46353
664.00,71.46931
664.20,71.51674
664.40,71.52043
664.60,71.50927
664.80,71.50459
665.00,71.52318
665.20,71.52348
665.40,71.53276
665.60,71.57394
665.80,71.60463
666.00,71.60146
666.20,71.60236
666.40,71.60853
666.60,71.60606
666.80,71.60716
667.00,71.63413
667.20,71.62166
667.40,71.64537
667.60,71.66002
667.80,71.64459
668.00,71.64201
668.20,71.64755
668.40,71.64309
668.60,71.64081
668.80,71.66910
669.00,71.69729
669.20,71.69484
669.40,71.71129
669.60,71.72001
669.80,71.75857
670.00,71.73733
670.20,71.78822
670.40,71.79701
670.60,71.76032
670.80,71.77436
671.00,71.81541
671.20,71.79936
671.40,71.84450
671.60,71.91105
671.80,71.88154
672.00,71.84359
672.20,71.87799
672.40,71.87543
672.60,71.84020
672.80,71.84243
673.00,71.87496
673.20,71.85827
673.40,71.82356
673.60,71.82629
673.80,71.84480
674.00,71.84593
674.20,71.91323
674.40,71.95806
674.60,71.98759
674.80,72.01650
675.00,72.03121
675.20,71.99715
675.40,72.00551
675.60,72.02759
675.80,72.02570
676.00,72.05856
676.20,72.06749
676.40,72.06484
676.60,72.04460
676.80,72.06685
677.00,72.07814
677.20,72.11898
677.40,72.14422
677.60,72.18359
677.80,72.18174
678.00,72.17249
678.20,72.18740
678.40,72.18511
678.60,72.21317
678.80,72.24402
679.00,72.26117
679.20,72.27554
679.40,72.34574
679.60,72.35374
679.80,72.36565
680.00,72.42436
680.20,72.41570
680.40,72.39184
680.60,72.41625
680.80,72.42069
681.00,72.41449
681.20,72.40807
681.40,72.45743
681.60,72.45435
681.80,72.49432
682.00,72.48875
682.20,72.55609
682.40,72.54683
682.60,72.57888
682.80,72.55143
683.00,72.56309
683.20,72.53463
683.40,72.54698
683.60,72.57357
683.80,72.62707
684.00,72.69173
684.20,72.71353
684.40,72.73203
684.60,72.75396
684.80,72.80669
685.00,72.79319
685.20,72.82478
685.40,72.82285
685.60,72.81409
685.80,72.79868
686.00,72.79630
686.20,72.82780
686.40,72.85680
686.60,72.87066
686.80,72.90157
687.00,72.92517
687.20,72.91872
687.40,72.93401
687.60,72.94641
687.80,72.92924
688.00,72.97742
688.20,73.01739
688.40,73.02077
688.60,73.04739
688.80,73.05609
689.00,73.09383
689.20,73.11336
689.40,73.17267
689.60,73.20000
689.80,73.24148
690.00,73.22391
690.20,73.20881
690.40,73.21278
690.60,73.22959
690.80,73.25642
691.00,73.27201
691.20,73.31570
691.40,73.31184
691.60,73.33416
691.80,73.40205
692.00,73.41619
692.20,73.44137
692.40,73.47167
692.60,73.49123
692.80,73.43818
693.00,73.46753
693.20,73.46641
693.40,73.49690
693.60,73.54616
693.80,73.60020
694.00,73.63105
694.20,73.67599
694.40,73.69477
694.60,73.70378
694.80,73.71197
695.00,73.70690
695.20,73.67899
695.40,73.73915
695.60,73.73616
695.80,73.75339
696.00,73.83489
696.20,73.91271
696.40,73.88835
696.60,73.91640
696.80,73.92886
697.00,73.86925
697.20,73.88911
697.40,73.91369
697.60,73.92977
697.80,73.95485
698.00,74.01960
698.20,74.00022
698.40,73.97646
698.60,73.99908
698.80,74.01821
699.00,74.04363
699.20,74.08842
699.40,74.14435
699.60,74.12118
699.80,74.17788
700.00,74.19384
700.20,74.24864
700.40,74.24008
700.60,74.32739
700.80,74.30254
701.00,74.34273
701.20,74.30001
701.40,74.32457
701.60,74.29166
701.80,74.30248
702.00,74.26376
702.20,74.29625
702.40,74.43106
702.60,74.47932
702.80,74.56231
703.00,74.57851
703.20,74.61798
703.40,74.53916
703.60,74.60893
703.80,74.54872
704.00,74.64792
704.20,74.63970
704.40,74.66041
704.60,74.65170
704.80,74.70330
705.00,74.63246
705.20,74.62752
705.40,74.72146
705.60,74.72749
705.80,74.78417
706.00,74.87341
706.20,74.93651
706.40,74.88000
706.60,74.85349
706.80,74.83682
707.00,74.82417
707.20,74.84791
707.40,74.84947
707.60,74.94103
707.80,74.96270
708.00,74.96978
708.20,74.96338
708.40,74.99659
708.60,74.96240
708.80,74.93866
709.00,74.96795
709.20,75.01649
709.40,75.08632
709.60,75.14065
709.80,75.17824
710.00,75.19689
710.20,75.20693
710.40,75.22022
710.60,75.20180
710.80,75.24323
711.00,75.26913
711.20,75.24387
711.40,75.21451
711.60,75.28822
711.80,75.28918
712.00,75.28886
712.20,75.36817
712.40,75.39651
712.60,75.36995
712.80,75.35388
713.00,75.38087
713.20,75.37653
713.40,75.37229
713.60,75.36825
713.80,75.41592
714.00,75.42687
714.20,75.40501
714.40,75.40270
714.60,75.48231
714.80,75.52788
715.00,75.54250
715.20,75.57659
715.40,75.62013
715.60,75.64201
715.80,75.62929
716.00,75.61043
716.20,75.58891
716.40,75.61174
716.60,75.55656
716.80,75.56456
717.00,75.65465
717.20,75.68992
717.40,75.70754
717.60,75.73063
717.80,75.73631
718.00,75.74354
718.20,75.77190
718.40,75.82220
718.60,75.84479
718.80,75.90711
719.00,75.86784
719.20,75.87648
719.40,75.80535
719.60,75.78468
719.80,75.74348
720.00,75.73033
720.20,75.75665
720.40,75.80973
720.60,75.83823
720.80,75.86311
721.00,75.95114
721.20,75.93468
721.40,75.98261
721.60,75.97986
721.80,76.00022
722.00,75.98915
722.20,75.98109
722.40,75.94929
722.60,76.00842
722.80,75.99196
723.00,75.99823
723.20,76.07733
723.40,76.06631
723.60,76.04085
723.80,76.10030
724.00,76.08487
724.20,76.04539
724.40,76.10350
724.60,76.10411
724.80,76.09105
725.00,76.18489
725.20,76.23556
725.40,76.20500
725.60,76.21434
725.80,76.23702
726.00,76.19539
726.20,76.24609
726.40,76.27748
726.60,76.29072
726.80,76.29337
727.00,76.27770
727.20,76.21981
727.40,76.23242
727.60,76.26586
727.80,76.21750
728.00,76.25730
728.20,76.28909
728.40,76.31874
728.60,76.29785
728.80,76.33989
729.00,76.34581
729.20,76.33256
729.40,76.31950
729.60,76.31873
729.80,76.34158
730.00,76.32037
730.20,76.34629
730.40,76.33086
730.60,76.41776
730.80,76.45770
731.00,76.49574
731.20,76.47051
731.40,76.46382
731.60,76.43392
731.80,76.47051
732.00,76.49410
732.20,76.48219
732.40,76.51297
732.60,76.56215
732.80,76.52193
733.00,76.51188
733.20,76.57079
733.40,76.60722
733.60,76.56547
733.80,76.53218
734.00,76.49488
734.20,76.52239
734.40,76.49444
734.60,76.48329
734.80,76.49404
735.00,76.50759
735.20,76.45168
735.40,76.44266
735.60,76.45738
735.80,76.51775
736.00,76.58955
736.20,76.64073
736.40,76.62144
736.60,76.64680
736.80,76.64419
737.00,76.57888
737.20,76.61141
737.40,76.70753
737.60,76.69466
737.80,76.67623
738.00,76.72642
738.20,76.69283
738.40,76.68150
738.60,76.66765
738.80,76.67911
739.00,76.63630
739.20,76.56933
739.40,76.55503
739.60,76.54887
739.80,76.56572
740.00,76.65554
740.20,76.73478
740.40,76.81887
740.60,76.88267
740.80,76.87871
741.00,76.91721
741.20,76.94661
741.40,76.79119
741.60,76.72321
741.80,76.66389
742.00,76.52726
742.20,76.48904
742.40,76.54804
742.60,76.58495
742.80,76.66933
743.00,76.67086
743.20,76.69141
743.40,76.71016
743.60,76.76177
743.80,76.73753
744.00,76.75059
744.20,76.77056
744.40,76.76071
744.60,76.74866
744.80,76.75121
745.00,76.77225
745.20,76.76760
745.40,76.83050
745.60,76.82036
745.80,76.82945
746.00,76.83702
746.20,76.78264
746.40,76.78918
746.60,76.78516
746.80,76.77609
747.00,76.82361
747.20,76.86173
747.40,76.79495
747.60,76.78299
747.80,76.80784
748.00,76.74817
748.20,76.76161
748.40,76.78407
748.60,76.79232
748.80,76.73794
749.00,76.74526
749.20,76.69373
749.40,76.73665
749.60,76.75884
749.80,76.81363
750.00,76.85449
750.20,76.96204
750.40,76.91973
750.60,76.95027
750.80,76.91299
751.00,76.96961
751.20,76.91708
751.40,76.91852
751.60,76.92446
751.80,76.97614
752.00,76.93356
752.20,76.98361
752.40,76.95768
752.60,76.94576
752.80,76.89429
753.00,76.93429
753.20,76.89237
753.40,76.95724
753.60,76.95585
753.80,76.99190
754.00,76.97821
754.20,77.01506
754.40,77.01620
754.60,77.08436
754.80,77.06682
755.00,77.00189
755.20,76.94926
755.40,76.99190
755.60,76.97109
755.80,77.01874
756.00,77.05830
756.20,77.07298
756.40,77.01188
756.60,76.98228
756.80,76.91290
757.00,76.96500
757.20,76.95972
757.40,77.02194
757.60,76.97943
757.80,77.08020
758.00,77.08780
758.20,77.15029
758.40,77.14275
758.60,77.20219
758.80,77.13220
759.00,77.12184
759.20,77.14332
759.40,77.12498
759.60,77.13544
759.80,77.18435
760.00,77.12278
760.20,77.06779
760.40,77.04087
760.60,76.99843
760.80,76.95044
761.00,76.89701
761.20,76.85606
761.40,76.84917
761.60,76.81057
761.80,76.84970
762.00,76.96535
762.20,76.99892
762.40,77.01759
762.60,77.06911
762.80,77.03938
763.00,76.92354
763.20,76.98901
763.40,77.03248
763.60,77.09435
763.80,77.12669
764.00,77.22757
764.20,77.25228
764.40,77.24493
764.60,77.13882
764.80,77.10163
765.00,77.07852
765.20,77.05398
765.40,77.03497
765.60,77.03531
765.80,77.07304
766.00,77.12193
766.20,77.09481
766.40,77.16707
766.60,77.16866
766.80,77.17949
767.00,77.16923
767.20,77.14666
767.40,77.05459
767.60,77.21879
767.80,77.24941
768.00,77.23765
768.20,77.21338
768.40,77.26903
768.60,77.19298
768.80,77.18490
769.00,77.23372
769.20,77.27206
769.40,77.24058
769.60,77.14503
769.80,77.11144
770.00,76.96379
770.20,76.96264
770.40,76.93517
770.60,77.02702
770.80,77.00827
771.00,77.16320
771.20,77.16162
771.40,77.14092
771.60,77.12536
771.80,77.17038
772.00,77.11904
772.20,77.15182
772.40,77.15449
772.60,77.13360
772.80,77.12956
773.00,77.05880
773.20,77.04576
773.40,77.17044
773.60,77.20130
773.80,77.13811
774.00,77.24282
774.20,77.19103
774.40,77.20708
774.60,77.23977
774.80,77.32922
775.00,77.28648
775.20,77.30479
775.40,77.32408
775.60,77.29972
775.80,77.25073
776.00,77.27376
776.20,77.32468
776.40,77.20449
776.60,77.18452
776.80,77.22762
777.00,77.16176
777.20,77.19155
777.40,77.21672
777.60,77.18504
777.80,77.14959
778.00,77.24433
778.20,77.17787
778.40,77.16045
778.60,77.23588
778.80,77.29945
779.00,77.23576
779.20,77.22234
779.40,77.29443
779.60,77.23331
779.80,77.14970
780.00,77.13468
780.20,77.18505
780.40,77.12885
780.60,77.16687
780.80,77.26167
781.00,77.35937
781.20,77.33456
781.40,77.29653
781.60,77.26222
781.80,77.27360
782.00,77.26040
782.20,77.31776
782.40,77.34471
782.60,77.40596
782.80,77.34684
783.00,77.23148
783.20,77.14468
783.40,77.23372
783.60,77.23113
783.80,77.27321
784.00,77.38790
784.20,77.47320
784.40,77.43626
784.60,77.35689
784.80,77.35365
785.00,77.29553
785.20,77.34547
785.40,77.30150
785.60,77.35863
785.80,77.33762
786.00,77.39484
786.20,77.32121
786.40,77.29805
786.60,77.35999
786.80,77.38122
787.00,77.40415
787.20,77.38149
787.40,77.40418
787.60,77.39016
787.80,77.32868
788.00,77.25974
788.20,77.23271
788.40,77.30492
788.60,77.37569
788.80,77.50724
789.00,77.58183
789.20,77.69478
789.40,77.56141
789.60,77.48512
789.80,77.47873
790.00,77.46783
790.20,77.41577
790.40,77.54342
790.60,77.54125
790.80,77.46603
791.00,77.43533
791.20,77.42217
791.40,77.43309
791.60,77.46786
791.80,77.44083
792.00,77.42857
792.20,77.52789
792.40,77.42568
792.60,77.39888
792.80,77.39537
793.00,77.36293
793.20,77.29529
793.40,77.46132
793.60,77.43337
793.80,77.53020
794.00,77.64821
794.20,77.59595
794.40,77.46626
794.60,77.41603
794.80,77.37291
795.00,77.36835
795.20,77.40586
795.40,77.42251
795.60,77.52525
795.80,77.51640
796.00,77.57990
796.20,77.63896
796.40,77.72538
796.60,77.67265
796.80,77.57389
797.00,77.55951
797.20,77.57518
797.40,77.57400
797.60,77.54157
797.80,77.68019
798.00,77.44443
798.20,77.28178
798.40,77.10773
798.60,77.14003
798.80,77.16511
799.00,77.31249
799.20,77.41798
799.40,77.56032
799.60,77.51216
799.80,77.38662
800.00,77.31918
