"MN1534VSlowPaint - RawData"
"Wavelength nm.","T%"
200.00,0.20390
201.00,0.20305
202.00,0.20128
203.00,0.13254
204.00,0.08868
205.00,0.11235
206.00,0.10690
207.00,0.10497
208.00,0.07157
209.00,0.10052
210.00,0.07563
211.00,0.07514
212.00,0.11138
213.00,0.07148
214.00,0.05754
215.00,0.06492
216.00,0.06120
217.00,0.07253
218.00,0.04953
219.00,0.05324
220.00,0.06674
221.00,0.05731
222.00,0.06221
223.00,0.07126
224.00,0.06162
225.00,0.07108
226.00,0.06975
227.00,0.07696
228.00,0.07602
229.00,0.09142
230.00,0.07547
231.00,0.08520
232.00,0.09539
233.00,0.13171
234.00,0.24643
235.00,0.54467
236.00,1.32834
237.00,2.84967
238.00,5.60407
239.00,9.77069
240.00,15.29811
241.00,22.10889
242.00,28.79262
243.00,34.88617
244.00,40.42880
245.00,45.08470
246.00,48.32979
247.00,50.63521
248.00,52.75646
249.00,54.63787
250.00,55.05450
251.00,55.81431
252.00,57.21846
253.00,58.05110
254.00,57.75173
255.00,57.85388
256.00,58.85220
257.00,59.91908
258.00,60.06591
259.00,59.62550
260.00,59.88428
261.00,60.54348
262.00,61.68479
263.00,61.81085
264.00,61.22516
265.00,60.79867
266.00,61.21604
267.00,62.23266
268.00,62.66701
269.00,62.48443
270.00,61.86821
271.00,61.64476
272.00,62.15263
273.00,62.80919
274.00,63.26553
275.00,63.12239
276.00,62.44172
277.00,62.12821
278.00,62.50182
279.00,63.16185
280.00,63.92729
281.00,63.89032
282.00,63.33629
283.00,62.66925
284.00,62.59645
285.00,63.17038
286.00,64.13860
287.00,64.79609
288.00,64.97808
289.00,64.44174
290.00,63.69635
291.00,63.33018
292.00,63.50947
293.00,64.56994
294.00,65.26731
295.00,65.89638
296.00,65.79349
297.00,65.07990
298.00,64.25312
299.00,64.20636
300.00,64.38015
301.00,65.09827
302.00,65.94385
303.00,66.52727
304.00,66.37025
305.00,66.08965
306.00,65.31393
307.00,64.60264
308.00,64.61964
309.00,65.34557
310.00,65.86943
311.00,66.51688
312.00,66.94316
313.00,67.04954
314.00,66.62778
315.00,65.94421
316.00,65.38145
317.00,64.87952
318.00,65.35742
319.00,65.86235
320.00,66.67855
321.00,67.25206
322.00,67.65000
323.00,67.75641
324.00,67.25122
325.00,66.37602
326.00,65.90339
327.00,65.49995
328.00,65.61080
329.00,66.09082
330.00,66.78939
331.00,67.84712
332.00,68.02351
333.00,68.49338
334.00,68.01869
335.00,67.56235
336.00,66.62929
337.00,66.06609
338.00,66.06621
339.00,65.93637
340.00,66.50780
341.00,67.13074
342.00,67.80217
343.00,68.31579
344.00,68.70167
345.00,68.61099
346.00,68.44275
347.00,67.74415
348.00,66.98620
349.00,66.67681
350.00,66.38511
351.00,66.24876
352.00,66.56252
353.00,67.30376
354.00,67.93388
355.00,68.66197
356.00,69.05181
357.00,69.21467
358.00,69.17942
359.00,68.75027
360.00,68.07079
361.00,67.46438
362.00,66.83837
363.00,66.60759
364.00,66.45527
365.00,66.66435
366.00,67.04677
367.00,67.78903
368.00,68.52516
369.00,69.03640
370.00,69.47428
371.00,69.62425
372.00,69.20321
373.00,68.89281
374.00,68.33754
375.00,67.68768
376.00,67.02080
377.00,66.78308
378.00,66.58328
379.00,66.76847
380.00,67.11257
381.00,67.63353
382.00,68.19896
383.00,68.83816
384.00,69.33597
385.00,69.73561
386.00,69.92550
387.00,69.75895
388.00,69.49898
389.00,68.94689
390.00,68.37164
391.00,67.80716
392.00,67.31746
393.00,67.03349
394.00,66.86908
395.00,66.88095
396.00,67.25935
397.00,67.79912
398.00,68.34483
399.00,68.85946
400.00,69.55679
401.00,69.99080
402.00,70.22305
403.00,70.28856
404.00,70.06789
405.00,69.73574
406.00,69.34483
407.00,68.74374
408.00,68.23076
409.00,67.76145
410.00,67.29876
411.00,67.05284
412.00,67.10179
413.00,67.14948
414.00,67.54566
415.00,68.01732
416.00,68.55824
417.00,69.10816
418.00,69.59763
419.00,70.27109
420.00,70.47097
421.00,70.60657
422.00,70.51105
423.00,70.39308
424.00,69.95804
425.00,69.58036
426.00,68.95279
427.00,68.44084
428.00,68.03870
429.00,67.55636
430.00,67.40282
431.00,67.39691
432.00,67.33256
433.00,67.55243
434.00,67.87379
435.00,68.31373
436.00,68.79938
437.00,69.43004
438.00,69.86896
439.00,70.29628
440.00,70.68700
441.00,70.89874
442.00,70.90191
443.00,70.90904
444.00,70.63683
445.00,70.26910
446.00,69.82009
447.00,69.30577
448.00,68.85199
449.00,68.40120
450.00,68.02956
451.00,67.72467
452.00,67.52021
453.00,67.47338
454.00,67.53538
455.00,67.74483
456.00,68.06332
457.00,68.53883
458.00,69.01571
459.00,69.43018
460.00,69.97975
461.00,70.39831
462.00,70.81082
463.00,71.14289
464.00,71.23845
465.00,71.28603
466.00,71.27149
467.00,70.98489
468.00,70.73805
469.00,70.22986
470.00,69.80568
471.00,69.38459
472.00,68.91127
473.00,68.52349
474.00,68.14998
475.00,67.93374
476.00,67.76369
477.00,67.70986
478.00,67.68141
479.00,67.87253
480.00,68.06087
481.00,68.48580
482.00,68.91039
483.00,69.30951
484.00,69.76877
485.00,70.25235
486.00,70.71664
487.00,71.10382
488.00,71.33951
489.00,71.57465
490.00,71.64399
491.00,71.71444
492.00,71.56403
493.00,71.37987
494.00,71.11099
495.00,70.71315
496.00,70.38931
497.00,69.95533
498.00,69.58575
499.00,69.09899
500.00,68.68581
501.00,68.42632
502.00,68.16094
503.00,68.01865
504.00,67.96467
505.00,67.92084
506.00,68.00952
507.00,68.27087
508.00,68.51006
509.00,68.80686
510.00,69.16096
511.00,69.58653
512.00,70.05621
513.00,70.40643
514.00,70.81536
515.00,71.17112
516.00,71.51625
517.00,71.74639
518.00,71.97363
519.00,72.08402
520.00,72.01833
521.00,71.93055
522.00,71.88478
523.00,71.56206
524.00,71.30312
525.00,70.95471
526.00,70.63124
527.00,70.20066
528.00,69.88361
529.00,69.50210
530.00,69.12481
531.00,68.76042
532.00,68.51352
533.00,68.28251
534.00,68.12165
535.00,68.08782
536.00,68.19709
537.00,68.27881
538.00,68.35971
539.00,68.61784
540.00,68.82599
541.00,69.17819
542.00,69.51091
543.00,69.90886
544.00,70.23773
545.00,70.67769
546.00,71.01614
547.00,71.40297
548.00,71.69697
549.00,72.04917
550.00,72.20210
551.00,72.38499
552.00,72.46595
553.00,72.41400
554.00,72.40526
555.00,72.25537
556.00,72.05132
557.00,71.81186
558.00,71.52825
559.00,71.29324
560.00,70.88422
561.00,70.59801
562.00,70.21401
563.00,69.89318
564.00,69.56220
565.00,69.23030
566.00,68.99861
567.00,68.80907
568.00,68.66977
569.00,68.53750
570.00,68.45934
571.00,68.33141
572.00,68.44628
573.00,68.57738
574.00,68.74887
575.00,68.90175
576.00,69.18878
577.00,69.48018
578.00,69.75691
579.00,70.17252
580.00,70.41814
581.00,70.79949
582.00,71.15947
583.00,71.47549
584.00,71.86975
585.00,72.11455
586.00,72.38094
587.00,72.59863
588.00,72.76488
589.00,72.86489
590.00,72.95913
591.00,72.89941
592.00,72.86196
593.00,72.79423
594.00,72.64278
595.00,72.43913
596.00,72.22961
597.00,71.96748
598.00,71.66874
599.00,71.36410
600.00,71.01665
601.00,70.73984
602.00,70.43046
603.00,70.08278
604.00,69.84817
605.00,69.50458
606.00,69.36688
607.00,69.17120
608.00,69.04266
609.00,68.89678
610.00,68.82010
611.00,68.72585
612.00,68.78762
613.00,68.78992
614.00,68.91328
615.00,69.03210
616.00,69.17897
617.00,69.42449
618.00,69.67918
619.00,69.91212
620.00,70.22903
621.00,70.49090
622.00,70.85063
623.00,71.08684
624.00,71.43999
625.00,71.74113
626.00,72.04090
627.00,72.34914
628.00,72.53734
629.00,72.81277
630.00,73.03411
631.00,73.17440
632.00,73.27269
633.00,73.42470
634.00,73.40955
635.00,73.46802
636.00,73.39197
637.00,73.28131
638.00,73.21765
639.00,73.04239
640.00,72.86004
641.00,72.65107
642.00,72.41879
643.00,72.03282
644.00,71.78263
645.00,71.52639
646.00,71.34193
647.00,70.97658
648.00,70.73321
649.00,70.40323
650.00,70.20184
651.00,70.01291
652.00,69.78378
653.00,69.57299
654.00,69.47520
655.00,69.37563
656.00,69.20686
657.00,69.22187
658.00,69.13086
659.00,69.04351
660.00,69.15254
661.00,69.29184
662.00,69.27285
663.00,69.46439
664.00,69.63562
665.00,69.80482
666.00,70.00169
667.00,70.23612
668.00,70.43341
669.00,70.71174
670.00,71.00016
671.00,71.17111
672.00,71.43121
673.00,71.77541
674.00,71.98913
675.00,72.30805
676.00,72.60092
677.00,72.83097
678.00,73.07062
679.00,73.19452
680.00,73.38913
681.00,73.63884
682.00,73.68042
683.00,73.85027
684.00,73.88995
685.00,74.01899
686.00,73.86423
687.00,74.00045
688.00,73.81040
689.00,73.78809
690.00,73.63266
691.00,73.50875
692.00,73.40674
693.00,73.27147
694.00,72.89750
695.00,72.76312
696.00,72.43931
697.00,72.34038
698.00,72.21531
699.00,71.89676
700.00,71.65025
701.00,71.33428
702.00,71.26107
703.00,70.97974
704.00,70.61544
705.00,70.47350
706.00,70.32697
707.00,70.19295
708.00,69.99683
709.00,69.95489
710.00,69.73118
711.00,69.69727
712.00,69.69214
713.00,69.60815
714.00,69.47311
715.00,69.53207
716.00,69.59295
717.00,69.62714
718.00,69.66558
719.00,69.81457
720.00,69.94455
721.00,70.01408
722.00,70.23139
723.00,70.46375
724.00,70.56205
725.00,70.82179
726.00,71.06383
727.00,71.28429
728.00,71.43945
729.00,71.56806
730.00,71.91866
731.00,72.15843
732.00,72.48324
733.00,72.66018
734.00,72.80039
735.00,73.12002
736.00,73.21846
737.00,73.56403
738.00,73.72936
739.00,73.79739
740.00,74.18816
741.00,74.10170
742.00,74.31473
743.00,74.36241
744.00,74.33036
745.00,74.42179
746.00,74.22019
747.00,74.51788
748.00,74.57629
749.00,74.47324
750.00,74.36203
751.00,74.25222
752.00,74.22369
753.00,74.03370
754.00,73.81090
755.00,73.83494
756.00,73.75624
757.00,73.62497
758.00,73.31570
759.00,73.11589
760.00,72.74004
761.00,72.57578
762.00,72.44776
763.00,72.10201
764.00,72.13903
765.00,71.62753
766.00,71.55904
767.00,71.29548
768.00,71.03454
769.00,71.10181
770.00,70.77788
771.00,70.70749
772.00,70.55265
773.00,70.49190
774.00,70.32632
775.00,70.18715
776.00,70.18074
777.00,69.91166
778.00,70.01511
779.00,69.95919
780.00,69.71419
781.00,69.79559
782.00,69.87924
783.00,69.86644
784.00,70.15684
785.00,70.14718
786.00,70.11908
787.00,70.21593
788.00,70.26792
789.00,70.33961
790.00,70.40792
791.00,70.76628
792.00,71.05818
793.00,71.17851
794.00,71.37813
795.00,71.41147
796.00,71.63824
797.00,71.77387
798.00,71.86964
799.00,72.01517
800.00,72.42985
