"TrainingExcersice1 - RawData"
"Wavelength nm.","T%"
190.00,2.21003
191.00,0.36471
192.00,1.43739
193.00,1.24156
194.00,0.92399
195.00,1.21904
196.00,0.58645
197.00,0.46088
198.00,0.78004
199.00,0.26739
200.00,0.38588
201.00,0.37964
202.00,-0.02826
203.00,0.03944
204.00,0.21013
205.00,-0.16871
206.00,0.31113
207.00,0.28393
208.00,0.08113
209.00,0.30246
210.00,0.00237
211.00,0.18441
212.00,0.11864
213.00,0.08810
214.00,0.08838
215.00,0.17663
216.00,-0.00068
217.00,0.05699
218.00,0.15448
219.00,0.11229
220.00,0.02263
221.00,0.05950
222.00,0.09098
223.00,0.14817
224.00,0.08857
225.00,0.10308
226.00,0.12734
227.00,0.05148
228.00,0.17081
229.00,0.11516
230.00,0.16411
231.00,0.19955
232.00,0.20487
233.00,0.28022
234.00,0.26443
235.00,0.35504
236.00,0.33463
237.00,0.46423
238.00,0.57658
239.00,0.68219
240.00,0.74301
241.00,1.00460
242.00,1.29366
243.00,1.61557
244.00,2.02796
245.00,2.54878
246.00,3.13623
247.00,3.84869
248.00,4.69171
249.00,5.83683
250.00,7.17200
251.00,8.65709
252.00,10.53134
253.00,12.92731
254.00,15.46571
255.00,18.71454
256.00,22.18124
257.00,25.60506
258.00,29.24244
259.00,32.53747
260.00,35.03412
261.00,37.93155
262.00,40.36743
263.00,42.06562
264.00,43.28271
265.00,45.50791
266.00,46.27822
267.00,48.24409
268.00,49.64268
269.00,50.66057
270.00,51.55701
271.00,51.62452
272.00,52.27672
273.00,53.03338
274.00,53.16137
275.00,53.03109
276.00,52.41671
277.00,53.30319
278.00,52.32316
279.00,52.91609
280.00,52.88824
281.00,53.42144
282.00,54.10123
283.00,54.17312
284.00,54.32643
285.00,54.67741
286.00,55.16312
287.00,55.79993
288.00,55.27293
289.00,56.33053
290.00,56.84745
291.00,56.67014
292.00,56.99506
293.00,57.12694
294.00,56.89169
295.00,57.15995
296.00,56.82445
297.00,56.48916
298.00,56.41702
299.00,56.08821
300.00,56.27856
301.00,56.03372
302.00,56.16933
303.00,56.11154
304.00,55.86054
305.00,56.20430
306.00,56.64935
307.00,56.53889
308.00,56.87642
309.00,57.72729
310.00,57.59169
311.00,58.34393
312.00,57.93772
313.00,58.06609
314.00,58.45939
315.00,59.01374
316.00,59.37392
317.00,58.07426
318.00,59.34974
319.00,58.69354
320.00,58.71744
321.00,58.52072
322.00,58.87447
323.00,58.22721
324.00,57.91031
325.00,58.01178
326.00,57.42627
327.00,57.69570
328.00,57.46740
329.00,57.51547
330.00,57.34643
331.00,56.65537
332.00,57.01929
333.00,57.56850
334.00,57.48250
335.00,57.35180
336.00,58.03018
337.00,57.35572
338.00,58.15043
339.00,58.18098
340.00,58.91935
341.00,58.24082
342.00,59.13519
343.00,58.70375
344.00,58.88570
345.00,59.44458
346.00,59.87586
347.00,59.79141
348.00,59.90461
349.00,59.67789
350.00,60.07576
351.00,60.29012
352.00,60.00299
353.00,59.51730
354.00,59.81843
355.00,59.57807
356.00,59.43605
357.00,59.62411
358.00,59.20913
359.00,59.70877
360.00,59.25622
361.00,59.20135
362.00,58.89570
363.00,58.44375
364.00,58.68413
365.00,58.36844
366.00,58.59216
367.00,58.63479
368.00,58.39915
369.00,58.35984
370.00,57.94493
371.00,58.08038
372.00,58.39066
373.00,58.12982
374.00,58.45994
375.00,58.55675
376.00,58.87389
377.00,58.62771
378.00,58.95067
379.00,58.84363
380.00,59.18764
381.00,59.29987
382.00,59.53274
383.00,59.63172
384.00,59.91887
385.00,59.93267
386.00,60.10116
387.00,60.23556
388.00,60.27109
389.00,60.60075
390.00,60.70342
391.00,60.66427
392.00,61.02464
393.00,60.94697
394.00,61.05359
395.00,60.89005
396.00,61.09377
397.00,60.73160
398.00,60.92458
399.00,60.94653
400.00,60.71386
401.00,61.01308
402.00,60.42785
403.00,60.93321
404.00,60.41172
405.00,60.51581
406.00,60.44614
407.00,60.23665
408.00,60.01292
409.00,59.90031
410.00,59.69573
411.00,59.99246
412.00,59.57272
413.00,59.40046
414.00,59.36710
415.00,59.42829
416.00,59.21457
417.00,59.37751
418.00,59.30593
419.00,59.07006
420.00,59.05249
421.00,59.23064
422.00,59.21147
423.00,59.03055
424.00,58.94903
425.00,59.20168
426.00,59.14089
427.00,59.28064
428.00,59.35313
429.00,59.27951
430.00,59.22043
431.00,59.60115
432.00,59.76089
433.00,59.84102
434.00,59.84241
435.00,59.99322
436.00,60.05908
437.00,60.14568
438.00,60.61097
439.00,60.36114
440.00,60.79721
441.00,60.80219
442.00,60.80363
443.00,61.20018
444.00,61.29178
445.00,61.07088
446.00,61.35252
447.00,61.50443
448.00,61.66548
449.00,61.76761
450.00,61.72009
451.00,61.85164
452.00,61.96685
453.00,61.89002
454.00,61.99198
455.00,62.15034
456.00,62.12938
457.00,62.17101
458.00,61.91649
459.00,62.08739
460.00,62.15835
461.00,62.01654
462.00,62.03335
463.00,61.94178
464.00,61.85541
465.00,61.73856
466.00,61.74400
467.00,61.53569
468.00,61.64907
469.00,61.59346
470.00,61.48859
471.00,61.46325
472.00,61.32478
473.00,61.16157
474.00,61.20417
475.00,60.99041
476.00,61.00951
477.00,60.94811
478.00,60.77663
479.00,60.69239
480.00,60.72439
481.00,60.73481
482.00,60.46302
483.00,60.40687
484.00,60.37627
485.00,60.32313
486.00,60.29574
487.00,60.34714
488.00,60.10069
489.00,60.07441
490.00,60.08762
491.00,60.07448
492.00,60.11463
493.00,60.06743
494.00,60.06541
495.00,60.19739
496.00,60.15169
497.00,60.11021
498.00,60.19014
499.00,60.23809
500.00,60.36083
501.00,60.26130
502.00,60.26391
503.00,60.30244
504.00,60.43896
505.00,60.68472
506.00,60.63468
507.00,60.62142
508.00,60.72428
509.00,60.81308
510.00,60.88043
511.00,60.96068
512.00,61.07666
513.00,60.96277
514.00,61.35787
515.00,61.37520
516.00,61.59124
517.00,61.64182
518.00,61.71285
519.00,61.92327
520.00,61.84595
521.00,62.16099
522.00,61.99696
523.00,62.05972
524.00,62.28577
525.00,62.36166
526.00,62.46200
527.00,62.60602
528.00,62.52345
529.00,62.68988
530.00,62.73077
531.00,62.86292
532.00,62.88564
533.00,62.81453
534.00,63.12659
535.00,62.99659
536.00,63.08305
537.00,63.14958
538.00,63.16566
539.00,63.28860
540.00,63.23002
541.00,63.45128
542.00,63.26103
543.00,63.32458
544.00,63.34550
545.00,63.35094
546.00,63.40857
547.00,63.36851
548.00,63.43277
549.00,63.38576
550.00,63.21720
551.00,63.47259
552.00,63.29666
553.00,63.26981
554.00,63.31322
555.00,63.16174
556.00,63.26847
557.00,63.21328
558.00,63.16744
559.00,63.00642
560.00,62.91153
561.00,63.01491
562.00,62.78479
563.00,62.80518
564.00,62.91080
565.00,62.69884
566.00,62.70815
567.00,62.59969
568.00,62.48440
569.00,62.49206
570.00,62.48868
571.00,62.42559
572.00,62.28359
573.00,62.27847
574.00,62.25182
575.00,62.21931
576.00,62.15731
577.00,62.04460
578.00,62.05496
579.00,61.89173
580.00,61.88786
581.00,61.73771
582.00,61.63729
583.00,61.60674
584.00,61.65659
585.00,61.74742
586.00,61.86661
587.00,61.53028
588.00,61.54063
589.00,61.49001
590.00,61.60288
591.00,61.48111
592.00,61.45253
593.00,61.51558
594.00,61.50118
595.00,61.37138
596.00,61.39500
597.00,61.47765
598.00,61.52548
599.00,61.32722
600.00,61.52104
601.00,61.43578
602.00,61.43037
603.00,61.52886
604.00,61.43867
605.00,61.59375
606.00,61.52622
607.00,61.53196
608.00,61.68181
609.00,61.60938
610.00,61.58991
611.00,61.73057
612.00,61.76041
613.00,61.81392
614.00,61.91105
615.00,61.84808
616.00,61.80484
617.00,62.03436
618.00,62.02931
619.00,62.14642
620.00,62.15506
621.00,62.12460
622.00,62.26017
623.00,62.24881
624.00,62.50640
625.00,62.46562
626.00,62.76641
627.00,62.55692
628.00,62.57908
629.00,62.74890
630.00,62.90525
631.00,62.81028
632.00,63.04395
633.00,62.91981
634.00,63.03120
635.00,63.07485
636.00,63.26298
637.00,63.18634
638.00,63.28217
639.00,63.44572
640.00,63.53502
641.00,63.54798
642.00,63.70009
643.00,63.60112
644.00,63.81604
645.00,63.87542
646.00,63.98910
647.00,64.18560
648.00,63.95473
649.00,64.26966
650.00,64.16929
651.00,64.19408
652.00,64.31788
653.00,64.31965
654.00,64.32710
655.00,64.46473
656.00,64.42021
657.00,64.62172
658.00,64.74004
659.00,64.63091
660.00,64.91167
661.00,64.50535
662.00,64.89837
663.00,64.97725
664.00,65.09199
665.00,65.06369
666.00,65.17097
667.00,64.77926
668.00,65.10786
669.00,65.09903
670.00,65.17632
671.00,65.02809
672.00,64.90088
673.00,64.84819
674.00,65.08914
675.00,65.32640
676.00,65.36734
677.00,65.32742
678.00,65.25149
679.00,65.24079
680.00,65.40732
681.00,65.31762
682.00,65.56404
683.00,64.93232
684.00,65.03414
685.00,65.20716
686.00,65.37032
687.00,65.16063
688.00,65.08907
689.00,64.92597
690.00,64.94731
691.00,65.12402
692.00,64.96923
693.00,64.75109
694.00,65.04991
695.00,65.00925
696.00,64.83389
697.00,65.27531
698.00,65.14427
699.00,64.98413
700.00,65.29640
701.00,64.84345
702.00,64.73782
703.00,64.77053
704.00,64.68083
705.00,64.79181
706.00,65.01293
707.00,64.48756
708.00,64.42715
709.00,64.71329
710.00,64.67005
711.00,64.39832
712.00,64.70703
713.00,64.65524
714.00,64.84953
715.00,64.22087
716.00,64.45377
717.00,64.85441
718.00,64.09242
719.00,64.38324
720.00,64.08523
721.00,64.42814
722.00,64.53076
723.00,64.01055
724.00,63.96682
725.00,63.76536
726.00,64.11038
727.00,63.99099
728.00,64.43663
729.00,63.76671
730.00,63.62175
731.00,63.63184
732.00,63.69527
733.00,63.52283
734.00,63.78701
735.00,63.83702
736.00,63.66512
737.00,63.70072
738.00,63.99200
739.00,63.67028
740.00,63.23782
741.00,63.62364
742.00,63.91426
743.00,63.43242
744.00,63.95738
745.00,63.48536
746.00,63.54560
747.00,63.65273
748.00,63.59640
749.00,63.25231
750.00,63.63670
751.00,63.56177
752.00,63.33177
753.00,63.59310
754.00,63.18927
755.00,63.39109
756.00,63.70955
757.00,63.76028
758.00,63.77415
759.00,63.47764
760.00,63.54236
761.00,63.66634
762.00,63.36127
763.00,63.45640
764.00,63.84979
765.00,63.28466
766.00,63.82486
767.00,63.43879
768.00,63.03157
769.00,63.58308
770.00,63.21264
771.00,63.90741
772.00,63.61924
773.00,63.64228
774.00,62.98485
775.00,63.39922
776.00,63.77898
777.00,63.58535
778.00,63.32157
779.00,63.77956
780.00,63.44683
781.00,63.38179
782.00,63.65940
783.00,63.30242
784.00,64.04452
785.00,64.25454
786.00,64.24558
787.00,63.72237
788.00,63.80459
789.00,64.23277
790.00,64.23494
791.00,63.72334
792.00,64.21997
793.00,64.33985
794.00,64.12544
795.00,64.62705
796.00,63.92502
797.00,63.56832
798.00,64.12332
799.00,64.45696
800.00,64.59463
801.00,64.60159
802.00,63.71489
803.00,64.82522
804.00,64.24780
805.00,64.65741
806.00,64.69094
807.00,64.74307
808.00,63.98985
809.00,64.99453
810.00,64.70497
811.00,64.95439
812.00,65.19181
813.00,64.58347
814.00,65.53104
815.00,65.16760
816.00,64.86515
817.00,64.62128
818.00,65.32086
819.00,65.20898
820.00,64.99088
821.00,64.89551
822.00,64.73703
823.00,65.40928
824.00,65.79729
825.00,65.65515
826.00,66.71850
827.00,65.68048
828.00,66.52381
829.00,66.08048
830.00,65.41101
831.00,67.21451
832.00,65.96177
833.00,66.44499
834.00,65.06889
835.00,65.64476
836.00,66.04846
837.00,65.91703
838.00,65.27032
839.00,67.99623
840.00,65.19071
841.00,65.41497
842.00,64.65342
843.00,67.07883
844.00,66.16403
845.00,67.92022
846.00,67.38420
847.00,66.65872
848.00,66.29040
849.00,65.99638
850.00,70.22507
851.00,66.44450
852.00,63.63446
853.00,68.98476
854.00,67.31810
855.00,68.55643
856.00,74.88673
857.00,66.90167
858.00,67.96583
859.00,62.57850
860.00,64.65870
861.00,69.96701
862.00,64.07154
863.00,68.28144
864.00,72.87743
865.00,65.49135
866.00,64.16227
867.00,69.98603
868.00,69.20811
869.00,69.47318
870.00,62.62702
871.00,61.39857
872.00,59.50726
873.00,61.95341
874.00,76.46741
875.00,65.69522
876.00,63.72827
877.00,54.75343
878.00,64.05122
879.00,63.07175
880.00,72.81544
881.00,85.23000
882.00,68.71731
883.00,50.69104
884.00,68.56681
885.00,57.33851
886.00,66.95324
887.00,69.49859
888.00,75.39694
889.00,55.00017
890.00,53.71510
891.00,60.23452
892.00,49.35602
893.00,58.47514
894.00,90.28555
895.00,62.10817
896.00,68.98940
897.00,69.14490
898.00,70.18568
899.00,90.26396
900.00,56.40107
