"ItalySlowCustom13_2 - RawData"
"Wavelength nm.","T%"
200.00,0.35457
201.00,0.37636
202.00,0.41439
203.00,0.39236
204.00,0.25632
205.00,0.36112
206.00,0.36679
207.00,0.35395
208.00,0.29994
209.00,0.25800
210.00,0.34192
211.00,0.26180
212.00,0.24695
213.00,0.29707
214.00,0.18946
215.00,0.23265
216.00,0.23839
217.00,0.24544
218.00,0.30699
219.00,0.24951
220.00,0.18989
221.00,0.23638
222.00,0.22849
223.00,0.25101
224.00,0.26960
225.00,0.22133
226.00,0.30850
227.00,0.26343
228.00,0.29985
229.00,0.29051
230.00,0.26784
231.00,0.28188
232.00,0.32034
233.00,0.31592
234.00,0.33798
235.00,0.36406
236.00,0.39726
237.00,0.41627
238.00,0.48200
239.00,0.53376
240.00,0.64619
241.00,0.74213
242.00,0.91137
243.00,1.11440
244.00,1.36792
245.00,1.65057
246.00,2.05769
247.00,2.59188
248.00,3.19810
249.00,3.98237
250.00,4.88036
251.00,6.05802
252.00,7.29679
253.00,8.86121
254.00,10.57612
255.00,12.33878
256.00,14.39930
257.00,16.28224
258.00,18.46880
259.00,20.70422
260.00,22.88204
261.00,25.20714
262.00,27.66584
263.00,30.16740
264.00,32.40086
265.00,34.39128
266.00,36.64631
267.00,38.04065
268.00,39.50399
269.00,40.67338
270.00,41.43572
271.00,42.15492
272.00,43.02233
273.00,43.50241
274.00,43.93882
275.00,45.16129
276.00,45.61824
277.00,46.50467
278.00,47.65872
279.00,48.39068
280.00,49.59649
281.00,50.77488
282.00,51.26009
283.00,51.82634
284.00,52.73604
285.00,52.72924
286.00,53.36640
287.00,53.55610
288.00,53.69596
289.00,53.76427
290.00,53.31126
291.00,53.22620
292.00,53.11953
293.00,52.29279
294.00,52.57794
295.00,52.13276
296.00,52.14829
297.00,52.31639
298.00,52.07314
299.00,52.14892
300.00,52.65496
301.00,52.47489
302.00,53.10588
303.00,53.25360
304.00,53.81874
305.00,54.38826
306.00,54.69260
307.00,55.03803
308.00,55.21111
309.00,55.84059
310.00,56.39051
311.00,56.25795
312.00,56.75524
313.00,56.69964
314.00,56.95113
315.00,56.62090
316.00,56.85378
317.00,56.32299
318.00,55.92527
319.00,56.26343
320.00,56.03849
321.00,55.49920
322.00,55.34167
323.00,55.04836
324.00,54.72446
325.00,54.97862
326.00,54.34860
327.00,54.78323
328.00,54.32618
329.00,54.43916
330.00,54.30819
331.00,54.45658
332.00,54.60278
333.00,54.58438
334.00,54.73765
335.00,54.93290
336.00,55.43808
337.00,55.57752
338.00,56.05169
339.00,56.29653
340.00,56.70136
341.00,56.97331
342.00,57.21363
343.00,57.90793
344.00,58.02069
345.00,58.43861
346.00,58.94996
347.00,59.04812
348.00,59.18250
349.00,59.33398
350.00,59.43692
351.00,59.26554
352.00,59.23778
353.00,59.36218
354.00,59.17512
355.00,59.30451
356.00,58.98985
357.00,59.05145
358.00,58.66258
359.00,58.35447
360.00,58.40483
361.00,57.90631
362.00,57.59066
363.00,57.54504
364.00,57.35348
365.00,57.17877
366.00,57.03402
367.00,56.82075
368.00,56.87122
369.00,56.62891
370.00,56.60985
371.00,56.32257
372.00,56.63238
373.00,56.34421
374.00,56.38606
375.00,56.50206
376.00,56.57234
377.00,56.38177
378.00,56.60659
379.00,56.80953
380.00,56.78529
381.00,57.19671
382.00,57.29718
383.00,57.36800
384.00,57.64783
385.00,57.86213
386.00,58.11130
387.00,58.32494
388.00,58.70480
389.00,58.83464
390.00,59.05132
391.00,59.28155
392.00,59.49250
393.00,59.68618
394.00,59.82653
395.00,60.15499
396.00,60.39039
397.00,60.49301
398.00,60.60690
399.00,60.65161
400.00,60.81479
401.00,60.80647
402.00,61.01523
403.00,60.95012
404.00,61.00961
405.00,60.94119
406.00,60.97738
407.00,61.04758
408.00,60.84989
409.00,60.75451
410.00,60.60067
411.00,60.63179
412.00,60.34424
413.00,60.25957
414.00,60.12499
415.00,60.15843
416.00,60.17248
417.00,60.01446
418.00,60.01793
419.00,59.87665
420.00,59.78947
421.00,59.68218
422.00,59.55704
423.00,59.74718
424.00,59.61049
425.00,59.61098
426.00,59.47050
427.00,59.44727
428.00,59.55399
429.00,59.45028
430.00,59.37114
431.00,59.44914
432.00,59.36019
433.00,59.34814
434.00,59.45273
435.00,59.45655
436.00,59.56419
437.00,59.49309
438.00,59.48850
439.00,59.68990
440.00,59.70665
441.00,59.87166
442.00,59.97722
443.00,59.94472
444.00,60.15716
445.00,60.35401
446.00,60.50323
447.00,60.51044
448.00,60.65574
449.00,60.91789
450.00,61.02228
451.00,61.23986
452.00,61.23949
453.00,61.64164
454.00,61.71741
455.00,61.85237
456.00,62.14912
457.00,62.27095
458.00,62.33506
459.00,62.61777
460.00,62.78368
461.00,62.94208
462.00,63.10037
463.00,63.31217
464.00,63.42349
465.00,63.33951
466.00,63.51317
467.00,63.76699
468.00,63.84814
469.00,63.99292
470.00,63.92066
471.00,64.05293
472.00,64.07148
473.00,64.12470
474.00,64.22067
475.00,64.23345
476.00,64.26491
477.00,64.25553
478.00,64.30690
479.00,64.31429
480.00,64.20712
481.00,64.18909
482.00,64.16618
483.00,64.18689
484.00,64.16770
485.00,63.94801
486.00,63.94581
487.00,64.01187
488.00,63.80075
489.00,63.71630
490.00,63.56177
491.00,63.50822
492.00,63.38152
493.00,63.48851
494.00,63.10742
495.00,63.08515
496.00,62.90606
497.00,62.89939
498.00,62.78034
499.00,62.69583
500.00,62.61818
501.00,62.45108
502.00,62.26160
503.00,62.21463
504.00,62.08172
505.00,61.89189
506.00,61.85146
507.00,61.70835
508.00,61.60769
509.00,61.47336
510.00,61.44029
511.00,61.35293
512.00,61.25868
513.00,61.16619
514.00,61.00582
515.00,61.05659
516.00,61.01496
517.00,60.83165
518.00,60.83171
519.00,60.80481
520.00,60.79506
521.00,60.71640
522.00,60.67047
523.00,60.63308
524.00,60.55726
525.00,60.55376
526.00,60.68454
527.00,60.69111
528.00,60.55263
529.00,60.55312
530.00,60.75900
531.00,60.66536
532.00,60.74545
533.00,60.87171
534.00,60.86330
535.00,60.85391
536.00,60.89582
537.00,61.00617
538.00,61.02946
539.00,61.10266
540.00,61.11718
541.00,61.25031
542.00,61.22281
543.00,61.36213
544.00,61.50611
545.00,61.49619
546.00,61.59765
547.00,61.74486
548.00,61.71671
549.00,61.79960
550.00,62.01230
551.00,62.10787
552.00,62.12411
553.00,62.14697
554.00,62.18846
555.00,62.50168
556.00,62.58255
557.00,62.70061
558.00,62.72326
559.00,62.82020
560.00,62.87838
561.00,62.99563
562.00,63.09749
563.00,63.19438
564.00,63.25293
565.00,63.34364
566.00,63.32581
567.00,63.27563
568.00,63.23324
569.00,63.37426
570.00,63.46721
571.00,63.47839
572.00,63.61149
573.00,63.63256
574.00,63.71668
575.00,63.69457
576.00,63.93287
577.00,64.01577
578.00,64.07865
579.00,64.12604
580.00,64.13026
581.00,64.28585
582.00,64.35707
583.00,64.25240
584.00,64.39006
585.00,64.46273
586.00,64.42659
587.00,64.51868
588.00,64.53571
589.00,64.59087
590.00,64.52425
591.00,64.56219
592.00,64.53846
593.00,64.50703
594.00,64.61685
595.00,64.55329
596.00,64.57092
597.00,64.51647
598.00,64.49730
599.00,64.46339
600.00,64.37158
601.00,64.43288
602.00,64.37459
603.00,64.39428
604.00,64.35587
605.00,64.35258
606.00,64.29738
607.00,64.27664
608.00,64.13400
609.00,64.11703
610.00,64.18590
611.00,63.96690
612.00,63.95412
613.00,63.96626
614.00,63.86395
615.00,63.73636
616.00,63.77081
617.00,63.70082
618.00,63.67968
619.00,63.62730
620.00,63.52206
621.00,63.41138
622.00,63.26631
623.00,63.30578
624.00,63.24294
625.00,63.30748
626.00,63.11340
627.00,63.17327
628.00,63.10697
629.00,63.11397
630.00,62.99491
631.00,62.88422
632.00,62.89203
633.00,62.92441
634.00,62.69411
635.00,62.68958
636.00,62.72491
637.00,62.60073
638.00,62.67948
639.00,62.55568
640.00,62.54074
641.00,62.49154
642.00,62.46128
643.00,62.36199
644.00,62.36641
645.00,62.27325
646.00,62.36724
647.00,62.35759
648.00,62.14142
649.00,62.30010
650.00,62.26831
651.00,62.14897
652.00,62.25069
653.00,62.27454
654.00,62.12623
655.00,62.15624
656.00,62.10899
657.00,62.18192
658.00,62.18638
659.00,62.18831
660.00,62.03982
661.00,62.07505
662.00,62.23409
663.00,62.25531
664.00,62.27289
665.00,62.30303
666.00,62.25885
667.00,62.39613
668.00,62.42315
669.00,62.47860
670.00,62.41508
671.00,62.45754
672.00,62.72848
673.00,62.55822
674.00,62.77045
675.00,62.78954
676.00,62.81879
677.00,62.95608
678.00,62.81830
679.00,63.26566
680.00,63.22711
681.00,63.24154
682.00,63.40470
683.00,63.46157
684.00,63.56393
685.00,63.89082
686.00,63.83599
687.00,63.92666
688.00,64.13632
689.00,64.26148
690.00,64.28753
691.00,64.50917
692.00,64.60325
693.00,64.77313
694.00,65.02898
695.00,65.02909
696.00,65.11204
697.00,65.32158
698.00,65.27874
699.00,65.58496
700.00,66.03701
701.00,66.13922
702.00,66.15803
703.00,66.29631
704.00,66.62301
705.00,66.74163
706.00,66.68537
707.00,67.04084
708.00,67.03122
709.00,67.13503
710.00,67.63184
711.00,67.47474
712.00,67.72009
713.00,67.70023
714.00,68.04426
715.00,68.14348
716.00,68.30127
717.00,68.41276
718.00,68.65952
719.00,68.60470
720.00,68.82786
721.00,69.01133
722.00,69.00343
723.00,69.43258
724.00,69.19867
725.00,69.40762
726.00,69.52921
727.00,69.41817
728.00,69.70520
729.00,69.81266
730.00,69.94601
731.00,69.81970
732.00,70.03768
733.00,70.21725
734.00,70.14841
735.00,70.32211
736.00,70.25413
737.00,70.39157
738.00,70.58814
739.00,70.47929
740.00,70.69253
741.00,70.83197
742.00,70.97072
743.00,71.00570
744.00,70.99707
745.00,71.14370
746.00,71.31518
747.00,71.41572
748.00,71.53631
749.00,71.24982
750.00,71.36990
751.00,71.48879
752.00,71.55924
753.00,71.79185
754.00,71.29791
755.00,71.90496
756.00,71.62933
757.00,71.88096
758.00,71.72472
759.00,71.85216
760.00,72.04862
761.00,71.73799
762.00,71.89923
763.00,71.77809
764.00,71.84952
765.00,72.39681
766.00,71.89175
767.00,72.27312
768.00,72.22582
769.00,72.46708
770.00,72.37864
771.00,72.23589
772.00,72.24769
773.00,72.58785
774.00,72.39155
775.00,72.29219
776.00,72.39882
777.00,72.52781
778.00,72.50499
779.00,72.49956
780.00,72.29344
781.00,72.93442
782.00,72.70299
783.00,72.01283
784.00,72.54564
785.00,72.64992
786.00,72.51543
787.00,72.63879
788.00,72.78705
789.00,72.51830
790.00,72.23540
791.00,72.41922
792.00,72.92510
793.00,72.85799
794.00,72.73404
795.00,72.08992
796.00,72.53028
797.00,72.54089
798.00,72.68774
799.00,72.45021
800.00,72.70079
