ItalySlowCustom13_5-RawData
Wavelength nm.,T%
200,0.46896
201,0.37678
202,0.43179
203,0.48937
204,0.30235
205,0.29159
206,0.33252
207,0.27256
208,0.34782
209,0.24054
210,0.27997
211,0.2792
212,0.24576
213,0.18602
214,0.25546
215,0.2446
216,0.21104
217,0.22949
218,0.26092
219,0.22738
220,0.27486
221,0.26032
222,0.21141
223,0.27931
224,0.24673
225,0.27786
226,0.25571
227,0.27333
228,0.26577
229,0.25367
230,0.24193
231,0.23107
232,0.2394
233,0.25378
234,0.25051
235,0.25828
236,0.29584
237,0.25787
238,0.32004
239,0.35899
240,0.40151
241,0.47281
242,0.52787
243,0.68958
244,0.8244
245,1.06779
246,1.40702
247,1.80146
248,2.35644
249,2.95695
250,3.80361
251,4.90887
252,6.26134
253,7.80318
254,9.6832
255,11.67908
256,14.02148
257,16.49056
258,19.15116
259,21.61893
260,24.516
261,27.35607
262,30.32961
263,32.86091
264,35.53509
265,38.15195
266,40.39867
267,42.5201
268,44.36938
269,46.40173
270,47.98661
271,49.41727
272,50.60733
273,51.48549
274,52.59801
275,53.73203
276,54.60188
277,55.3024
278,56.68672
279,56.82586
280,57.38241
281,58.34714
282,58.73917
283,58.62395
284,59.29302
285,59.79562
286,59.71915
287,60.2106
288,60.30008
289,60.2454
290,60.12973
291,60.4616
292,60.62642
293,60.55397
294,60.8595
295,61.0463
296,61.57087
297,61.73791
298,61.84616
299,62.33947
300,62.77833
301,62.69081
302,62.87576
303,63.07351
304,63.26927
305,63.3695
306,63.54933
307,63.51367
308,63.14387
309,63.31743
310,63.45771
311,63.06522
312,63.08628
313,63.24707
314,63.1052
315,63.01604
316,62.87531
317,62.34943
318,62.89715
319,62.8854
320,63.05315
321,63.14269
322,63.58216
323,63.65602
324,63.5555
325,64.1485
326,63.87267
327,64.60628
328,64.32827
329,64.8499
330,64.98196
331,65.29361
332,65.1199
333,65.1685
334,65.36993
335,65.25624
336,65.36525
337,65.32776
338,65.42495
339,64.84529
340,65.19264
341,64.95391
342,64.69144
343,64.89731
344,64.60335
345,64.55305
346,64.35205
347,64.47841
348,64.32232
349,64.26095
350,64.08209
351,64.30476
352,64.2222
353,64.77218
354,64.53999
355,64.57217
356,64.93692
357,65.25456
358,65.19097
359,65.46028
360,65.87265
361,65.72971
362,66.00645
363,66.35742
364,66.41806
365,66.61711
366,66.48014
367,66.91478
368,66.94391
369,67.33739
370,67.10507
371,66.96636
372,67.1509
373,66.87969
374,67.03559
375,66.74286
376,66.71636
377,66.5235
378,66.65156
379,66.25476
380,66.05616
381,65.98006
382,65.85014
383,65.70212
384,65.55006
385,65.34946
386,65.34398
387,65.16811
388,65.19499
389,65.34021
390,65.30178
391,65.23998
392,65.08081
393,65.29907
394,65.30887
395,65.36645
396,65.61781
397,65.70349
398,65.72624
399,65.91393
400,66.1023
401,66.33738
402,66.44896
403,66.52811
404,66.92653
405,67.0339
406,67.18757
407,67.40422
408,67.52829
409,67.78076
410,67.86976
411,68.02042
412,68.04438
413,68.32781379
414,68.16650378
415,68.38113366
416,68.35783941
417,68.46229104
418,68.2417778
419,68.29912587
420,68.3305968
421,68.19271182
422,68.0198805
423,68.02898487
424,67.90657922
425,67.87704935
426,67.76231655
427,67.52741328
428,67.55190504
429,67.37626501
430,67.10036442
431,67.05514332
432,66.93502508
433,66.8690445
434,66.73670036
435,66.52109244
436,66.50696146
437,66.4056878
438,66.23760069
439,66.15238122
440,66.15822798
441,66.10641156
442,66.0284613
443,65.88892386
444,66.03197328
445,65.8167314
446,65.9006684
447,65.6560506
448,65.895151
449,66.0305674
450,65.9938762
451,66.0544108
452,66.0905238
453,66.46056237
454,66.44080503
455,66.50812125
456,66.63206079
457,66.7835994
458,66.8775716
459,66.98579958
460,67.19978511
461,67.2312242
462,67.5089268
463,67.7088076
464,67.735297
465,67.8478598
466,68.1141944
467,68.062421
468,68.2411436
469,68.4879762
470,68.5173468
471,68.5973246
472,68.8146886
473,68.91234624
474,69.00966144
475,69.01399746
476,69.12021076
477,69.34727831
478,69.44235407
479,69.50486304
480,69.33242518
481,69.57186005
482,69.61986268
483,69.72415737
484,69.75747849
485,69.60128574
486,69.66359738
487,69.78916082
488,69.7574493
489,69.5449953
490,69.5683692
491,69.53862856
492,69.52238607
493,69.473064
494,69.30570392
495,69.22371849
496,69.00329184
497,68.92469415
498,68.87267656
499,68.81118501
500,68.76399359
501,68.49812811
502,68.48957472
503,68.40848864
504,68.28001472
505,68.01293856
506,68.027888
507,67.8363328
508,67.80580896
509,67.67901723
510,67.71329559
511,67.53162624
512,67.54009653
513,67.51073056
514,67.3915291
515,67.59730488
516,67.46385084
517,67.57701892
518,67.39854595
519,67.4876043
520,67.53933306
521,67.56539697
522,67.49605638
523,67.53543696
524,67.3977348
525,67.43012238
526,67.55556681
527,67.65982245
528,67.52257983
529,67.59135099
530,67.7245077
531,67.77351864
532,67.81468882
533,67.83443924
534,67.93179414
535,67.96701541
536,68.0671878
537,67.99515708
538,68.16218628
539,68.13560304
540,68.1674699
541,68.23940214
542,68.15986755
543,68.33996796
544,68.43567936
545,68.42645376
546,68.57551168
547,68.71105856
548,68.78119296
549,68.783328
550,69.0182512
551,69.06584736
552,69.16026592
553,69.38803904
554,69.26552704
555,69.46932352
556,69.69609813
557,69.76432716
558,69.91700576
559,70.09771496
560,70.10068702
561,70.17642982
562,70.2905014
563,70.4477711
564,70.60857144
565,70.62730054
566,70.54062136
567,70.56199704
568,70.7144184
569,70.67854634
570,70.72218218
571,70.72585482
572,70.869976
573,70.75970698
574,70.78246365
575,70.67213563
576,70.74858559
577,70.69869571
578,70.5883447
579,70.5123864
580,70.4926257
581,70.4005882
582,70.2585044
583,70.10908683
584,70.1056014
585,70.01170944
586,70.01979424
587,69.89706335
588,69.7474719
589,69.6687651
590,69.6564198
591,69.58510646
592,69.4275516
593,69.3845955
594,69.3516978
595,69.2724285
596,69.0504965
597,69.0367494
598,68.95813379
599,68.749346
600,68.73552967
601,68.7388779
602,68.5846953
603,68.5607472
604,68.5178208
605,68.432364
606,68.4056241
607,68.44320689
608,68.22761484
609,68.23294642
610,68.38640672
611,68.20294389
612,68.1331833
613,68.12596686
614,68.2176776
615,68.01321505
616,68.1576246
617,68.05637124
618,67.99304556
619,68.03653092
620,68.00452255
621,67.79294916
622,67.80056856
623,67.84691244
624,67.78205292
625,67.76874636
626,67.7417946
627,67.81148472
628,67.8494622
629,67.80376572
630,67.64285196
631,67.62352968
632,67.63592486
633,67.65523828
634,67.66274196
635,67.57128032
636,67.53148128
637,67.46665567
638,67.63539324
639,67.5142677
640,67.5583326
641,67.43482654
642,67.54111437
643,67.39440448
644,67.55562632
645,67.38680932
646,67.62704822
647,67.73406866
648,67.54668035
649,67.7749147
650,67.59023184
651,67.64937024
652,67.66170855
653,67.80195432
654,67.88635722
655,67.97857684
656,67.98171078
657,68.05642374
658,68.05976895
659,68.25933378
660,68.16530493
661,68.36711625
662,68.58467262
663,68.49164439
664,68.8771872
665,68.86618038
666,68.90896179
667,69.16427685
668,69.13375794
669,69.25235103
670,69.46315812
671,69.49446183
672,69.68293155
673,69.73796565
674,69.7978932
675,69.751794
676,70.1386882
677,70.0349258
678,70.00826
679,70.29052591
680,70.43926538
681,70.40874324
682,70.56085158
683,70.67892552
684,70.5979223
685,71.06746928
686,70.93800675
687,70.79805356
688,70.99110036
689,70.93248813
690,71.00111382
691,71.06096488
692,71.20238132
693,71.0336626
694,71.35917552
695,71.27822756
696,71.26567434
697,71.13506384
698,71.05298085
699,71.32226634
700,71.36544565
701,71.32088754
702,71.33835136
703,71.25832527
704,71.29361396
705,71.41418375
706,71.25611076
707,71.2753832
708,71.21410389
709,71.2323775
710,71.18814365
711,71.02731068
712,71.16116612
713,70.9718247
714,71.04656336
715,71.02188469
716,70.8564393
717,70.80480161
718,70.9667758
719,70.7427456
720,70.76477715
721,70.9122372
722,71.02056682
723,71.03420425
724,70.63320888
725,70.6806828
726,70.68026845
727,70.8239873
728,70.59843725
729,70.60113005
730,70.30363704
731,70.4736624
732,70.48404848
733,70.40709096
734,70.17471798
735,70.12189988
736,70.17926448
737,70.22226696
738,70.16000457
739,70.08939513
740,70.23705171
741,70.2007943
742,70.29199006
743,70.39731875
744,70.3768572
745,70.19042472
746,70.46955864
747,70.28837712
748,70.21674504
749,69.98173416
750,69.88293936
751,69.77632915
752,70.1241959
753,69.8266976
754,69.71560128
755,69.7322808
756,69.80845248
757,69.91422048
758,69.87477919
759,69.83180837
760,69.6161016
761,69.570991
762,69.65257824
763,69.93150192
764,69.807836
765,69.77980371
766,69.70604526
767,69.89115033
768,69.7269335
769,69.66320808
770,69.67384695
771,69.28174872
772,69.47680719
773,69.54026481
774,69.45320634
775,69.0598984
776,69.02356154
777,69.09214994
778,69.09646951
779,69.10316906
780,69.18081825
781,69.56304866
782,69.1436304
783,68.68736784
784,68.70952296
785,69.09399432
786,68.67432936
787,68.67134615
788,68.8252378
789,68.76671615
790,68.50710672
791,68.70269566
792,68.55892059
793,68.57057656
794,68.67113936
795,68.30688347
796,68.67034716
797,68.15526081
798,68.7873198
799,68.03311327
800,68.05976128
