"MN1534SlowCorrected - RawData"
"Wavelength nm.","T%"
200.00,0.15165
201.00,0.14003
202.00,0.13916
203.00,0.20811
204.00,0.16725
205.00,0.06149
206.00,0.1045
207.00,0.08194
208.00,0.06272
209.00,0.10956
210.00,0.06684
211.00,0.14849
212.00,0.07566
213.00,0.04501
214.00,0.11448
215.00,0.09162
216.00,0.06852
217.00,0.04717
218.00,0.06195
219.00,0.08204
220.00,0.05939
221.00,0.06131
222.00,0.06661
223.00,0.06893
224.00,0.11134
225.00,0.0838
226.00,0.04683
227.00,0.06319
228.00,0.06967
229.00,0.06975
230.00,0.09945
231.00,0.08113
232.00,0.07718
233.00,0.11312
234.00,0.19327
235.00,0.50903
236.00,1.06416
237.00,2.26624
238.00,4.69651
239.00,8.11795
240.00,12.51092
241.00,17.97905
242.00,23.50104
243.00,29.0704
244.00,33.90903
245.00,37.39155
246.00,40.47407
247.00,42.49752
248.00,44.35727
249.00,45.57818
250.00,46.38806
251.00,47.12171
252.00,48.24084
253.00,48.44274
254.00,48.58616
255.00,48.94711
256.00,49.86975
257.00,50.42999
258.00,50.37241
259.00,50.64649
260.00,50.93316
261.00,51.82474
262.00,52.16372
263.00,51.87832
264.00,51.78446
265.00,51.55353
266.00,52.56295
267.00,53.41364
268.00,53.28122
269.00,52.54306
270.00,52.62542
271.00,52.96195
272.00,53.83326
273.00,54.11014
274.00,54.00769
275.00,53.40863
276.00,52.97891
277.00,53.65502
278.00,54.14827
279.00,54.64156
280.00,54.85612
281.00,54.44025
282.00,53.99787
283.00,53.63892
284.00,53.80039
285.00,54.73161
286.00,55.74486
287.00,55.7674
288.00,55.25157
289.00,55.00711
290.00,54.49242
291.00,54.93588
292.00,55.74455
293.00,56.40594
294.00,56.63849
295.00,56.47868
296.00,56.06664
297.00,55.28261
298.00,54.82619
299.00,55.39986
300.00,55.94066
301.00,56.85721
302.00,57.40169
303.00,56.71673
304.00,56.59333
305.00,56.105
306.00,57.2906
307.00,57.29262
308.00,57.3992
309.00,58.23511
310.00,59.29706
311.00,59.31229
312.00,59.28326
313.00,58.89804
314.00,58.63535
315.00,58.14492
316.00,57.63602
317.00,57.33994
318.00,58.30794
319.00,59.25231
320.00,59.99112
321.00,59.85524
322.00,59.27318
323.00,59.35418
324.00,58.60199
325.00,57.24027
326.00,57.27636
327.00,57.3921
328.00,57.74537
329.00,58.42437
330.00,58.93833
331.00,59.68348
332.00,59.59709
333.00,59.37951
334.00,58.9691
335.00,58.66356
336.00,57.58989
337.00,57.81964
338.00,57.9147
339.00,57.88587
340.00,58.80623
341.00,59.45514
342.00,59.98232
343.00,60.49296
344.00,60.23717
345.00,60.2034
346.00,59.54371
347.00,58.81834
348.00,58.46542
349.00,58.08063
350.00,58.19504
351.00,58.56922
352.00,58.92202
353.00,60.00586
354.00,60.32158
355.00,60.60442
356.00,60.6446
357.00,60.89043
358.00,60.10764
359.00,59.83614
360.00,59.05071
361.00,58.69859
362.00,58.59476
363.00,58.67855
364.00,59.19205
365.00,59.31443
366.00,59.93749
367.00,60.34817
368.00,60.98686
369.00,61.16077
370.00,61.17152
371.00,60.99229
372.00,60.56172
373.00,60.07842
374.00,59.73351
375.00,59.26799
376.00,58.81423
377.00,59.01912
378.00,58.93272
379.00,59.4486
380.00,60.04024
381.00,60.71479
382.00,61.07708
383.00,61.32586
384.00,61.64767
385.00,61.82644
386.00,61.57019
387.00,61.32416
388.00,60.49474
389.00,60.3608
390.00,59.82874
391.00,59.61927
392.00,59.35692
393.00,59.14887
394.00,59.51167
395.00,59.78827
396.00,60.14187
397.00,60.80459
398.00,61.32981
399.00,61.77348
400.00,62.04225
401.00,62.8441897
402.00,62.8432403
403.00,62.6415635
404.00,62.2928004
405.00,61.2363
406.00,60.79515
407.00,60.4177
408.00,60.07305
409.00,59.80258
410.00,59.65527
411.00,59.78038
412.00,60.08057
413.00,60.20211762
414.00,60.67396888
415.00,61.21100266
416.00,61.49644553
417.00,62.05749312
418.00,62.40974124
419.00,62.76837405
420.00,62.55649216
421.00,62.42968015
422.00,62.1922851
423.00,61.76867088
424.00,61.33099452
425.00,60.92673175
426.00,60.4872543
427.00,60.16400352
428.00,59.79012288
429.00,59.69518165
430.00,59.65911212
431.00,59.92072674
432.00,60.07649158
433.00,60.33622076
434.00,60.93721458
435.00,61.37561866
436.00,61.71124662
437.00,62.40503944
438.00,62.6928651
439.00,62.75722851
440.00,62.92882503
441.00,62.90948952
442.00,62.80572915
443.00,62.45854344
444.00,62.18514855
445.00,61.6184408
446.00,61.313602
447.00,60.9215628
448.00,60.607708
449.00,60.4040248
450.00,60.1216868
451.00,60.200518
452.00,60.1240094
453.00,60.34812795
454.00,60.60949578
455.00,60.98957442
456.00,61.44083442
457.00,61.7308076
458.00,62.1462688
459.00,62.65212417
460.00,63.03795147
461.00,63.2006312
462.00,63.4274424
463.00,63.4533536
464.00,63.4908484
465.00,63.3563532
466.00,63.2300704
467.00,62.8666374
468.00,62.3846734
469.00,62.0907518
470.00,61.668803
471.00,61.2248728
472.00,61.2323404
473.00,60.8886099
474.00,60.69318489
475.00,60.63604164
476.00,60.73446104
477.00,60.88666612
478.00,61.05069933
479.00,61.14037842
480.00,61.70878834
481.00,62.0944197
482.00,62.58216936
483.00,63.06628965
484.00,63.37337496
485.00,63.6445236
486.00,64.07257269
487.00,64.25520143
488.00,64.4715522
489.00,64.4008167
490.00,64.4346549
491.00,64.2794312
492.00,64.01491348
493.00,63.79293939
494.00,63.39670786
495.00,63.00337005
496.00,62.63531648
497.00,62.21124393
498.00,62.0179692
499.00,61.57593365
500.00,61.4708381
501.00,61.27849491
502.00,61.2468736
503.00,61.33007264
504.00,61.36048736
505.00,61.56807328
506.00,61.80559776
507.00,61.95202688
508.00,62.29133056
509.00,62.86655196
510.00,63.10054248
511.00,63.54023295
512.00,63.88290732
513.00,64.17801754
514.00,64.64440375
515.00,64.88403156
516.00,65.1375534
517.00,65.13469793
518.00,65.16444841
519.00,65.11239424
520.00,65.12733747
521.00,64.96243254
522.00,64.55165373
523.00,64.38727827
524.00,64.03247343
525.00,63.60787845
526.00,63.3547818
527.00,62.98586109
528.00,62.73544176
529.00,62.4531843
530.00,62.07348438
531.00,62.00539254
532.00,61.78440356
533.00,61.87253694
534.00,61.85955296
535.00,61.82585433
536.00,61.90460712
537.00,61.66680216
538.00,61.91744556
539.00,62.16078828
540.00,62.44372245
541.00,62.60966446
542.00,62.96246583
543.00,63.22091394
544.00,63.47591744
545.00,63.8578176
546.00,64.11575744
547.00,64.31390944
548.00,64.5088176
549.00,64.56280765
550.00,64.67044416
551.00,64.6792432
552.00,64.64522752
553.00,64.56363552
554.00,64.30338432
555.00,64.23533312
556.00,63.91670904
557.00,63.55325118
558.00,63.37946776
559.00,63.09890132
560.00,62.97487
561.00,62.55897046
562.00,62.4573241
563.00,62.19562915
564.00,62.05819032
565.00,62.02826527
566.00,61.92430808
567.00,61.84747926
568.00,61.74288399
569.00,61.85550511
570.00,61.93275626
571.00,61.9271974
572.00,62.14208676
573.00,62.24678694
574.00,62.41056492
575.00,62.71048246
576.00,62.89128841
577.00,63.21441611
578.00,63.27804985
579.00,63.6179916
580.00,63.8699853
581.00,64.13309315
582.00,64.43314752
583.00,64.37962578
584.00,64.59321015
585.00,64.67933248
586.00,64.86829856
587.00,64.90497022
588.00,64.92498842
589.00,64.9453365
590.00,64.7424855
591.00,64.77635824
592.00,64.5958467
593.00,64.365048
594.00,64.1651373
595.00,63.8719587
596.00,63.55972674
597.00,63.31870744
598.00,63.06148832
599.00,62.7459182
600.00,62.57556295
601.00,62.3501802
602.00,62.051022
603.00,61.8877314
604.00,61.6999185
605.00,61.6026708
606.00,61.5446766
607.00,61.41105107
608.00,61.38258955
609.00,61.50585013
610.00,61.44141472
611.00,61.75236624
612.00,61.8494135
613.00,62.01170388
614.00,62.25976685
615.00,62.45122475
616.00,62.72647644
617.00,62.96193084
618.00,63.20032344
619.00,63.5538636
620.00,63.8244505
621.00,64.15663284
622.00,64.39562304
623.00,64.73578692
624.00,64.93960836
625.00,65.1497046
626.00,65.44963008
627.00,65.6532324
628.00,65.85528096
629.00,65.92739136
630.00,66.0187146
631.00,65.9760542
632.00,65.98497038
633.00,65.97523912
634.00,65.99421399
635.00,65.82134272
636.00,65.72033728
637.00,65.53267953
638.00,65.51486135
639.00,64.9179729
640.00,64.8089739
641.00,64.65773432
642.00,64.3442411
643.00,64.11742584
644.00,63.89444412
645.00,63.57211336
646.00,63.23138134
647.00,63.25137742
648.00,62.9638989
649.00,62.7429831
650.00,62.404542
651.00,62.41406712
652.00,62.20234281
653.00,62.16445926
654.00,61.97921478
655.00,62.12842968
656.00,61.91959185
657.00,62.02860057
658.00,62.16474375
659.00,62.2226718
660.00,62.42204043
661.00,62.44927299
662.00,62.71538886
663.00,62.7962625
664.00,63.00826641
665.00,63.07821171
666.00,63.49987494
667.00,63.69176835
668.00,64.02969342
669.00,64.38252969
670.00,64.67285664
671.00,64.87436385
672.00,65.0577618
673.00,65.68091262
674.00,65.5863138
675.00,65.7708282
676.00,66.146423
677.00,66.2485292
678.00,66.4156388
679.00,66.55008019
680.00,66.65261086
681.00,66.82675956
682.00,66.90011934
683.00,67.09667778
684.00,66.92580918
685.00,66.80394016
686.00,66.67195275
687.00,66.48365238
688.00,66.74543436
689.00,66.45974335
690.00,66.35662481
691.00,66.00728857
692.00,66.1330622
693.00,65.8046642
694.00,65.62153272
695.00,65.036552
696.00,64.79579274
697.00,64.49941804
698.00,64.4178627
699.00,64.27483712
700.00,64.03118014
701.00,63.70122017
702.00,63.624612
703.00,63.32217309
704.00,63.18885628
705.00,62.99116015
706.00,62.6470335
707.00,62.71895952
708.00,62.49641052
709.00,62.6203235
710.00,62.28870635
711.00,62.21555144
712.00,62.31862032
713.00,62.19062955
714.00,62.29780736
715.00,62.11673963
716.00,62.24563614
717.00,62.29404003
718.00,62.5834516
719.00,62.7640256
720.00,62.65010817
721.00,62.81602152
722.00,63.22229746
723.00,63.33761129
724.00,63.39776976
725.00,63.59382432
726.00,63.57411885
727.00,63.9487827
728.00,64.0375703
729.00,64.4814522
730.00,64.8287065
731.00,64.90628454
732.00,64.98050952
733.00,65.05522569
734.00,65.38885716
735.00,65.60807476
736.00,65.70146116
737.00,65.61498088
738.00,65.89061523
739.00,66.13761765
740.00,66.18296145
741.00,66.27423028
742.00,65.89251382
743.00,66.4540778
744.00,66.60727632
745.00,66.42999792
746.00,66.44216592
747.00,66.52068696
748.00,66.21897672
749.00,66.17570544
750.00,65.86397064
751.00,65.8829798
752.00,65.81263975
753.00,65.7044322
754.00,65.473902
755.00,64.86834744
756.00,65.72782944
757.00,64.98054576
758.00,65.07977539
759.00,64.51662902
760.00,64.93486834
761.00,64.93668944
762.00,64.82375424
763.00,65.07765208
764.00,64.6968616
765.00,64.51950693
766.00,64.57946208
767.00,64.74852903
768.00,64.32749596
769.00,64.01616537
770.00,63.96452976
771.00,64.08213951
772.00,63.51609153
773.00,63.75082275
774.00,64.024128
775.00,63.44666872
776.00,63.49751971
777.00,63.72746888
778.00,63.17308346
779.00,63.61847704
780.00,63.5781673
781.00,63.54843629
782.00,63.65461752
783.00,64.21345632
784.00,64.16924904
785.00,64.11299544
786.00,64.34618112
787.00,64.48402345
788.00,64.25090925
789.00,64.61065985
790.00,64.57663858
791.00,64.25024294
792.00,65.03946732
793.00,64.8794558
794.00,65.15597088
795.00,64.89738458
796.00,65.46077216
797.00,65.24209664
798.00,66.1080177
799.00,65.46194784
800.00,65.80092576
