"MN1534SlowCorrected2 - RawData"
"Wavelength nm.","T%"
200.00,0.19592
201.00,0.18122
202.00,0.108
203.00,0.16544
204.00,0.24424
205.00,0.12025
206.00,0.20387
207.00,0.13935
208.00,0.08801
209.00,0.05473
210.00,0.11047
211.00,0.11173
212.00,0.08454
213.00,0.12875
214.00,0.09109
215.00,0.0548
216.00,0.06362
217.00,0.10927
218.00,0.06873
219.00,0.09165
220.00,0.07332
221.00,0.08064
222.00,0.11577
223.00,0.05509
224.00,0.07762
225.00,0.09537
226.00,0.07998
227.00,0.05037
228.00,0.09132
229.00,0.07864
230.00,0.10577
231.00,0.10759
232.00,0.11446
233.00,0.11509
234.00,0.25797
235.00,0.4944
236.00,1.04918
237.00,2.26548
238.00,4.67452
239.00,7.86669
240.00,12.36816
241.00,17.76837
242.00,23.35802
243.00,28.37232
244.00,33.16337
245.00,37.01462
246.00,39.57549
247.00,41.95209
248.00,43.38651
249.00,44.6486
250.00,45.36363
251.00,46.27478
252.00,47.17042
253.00,47.7645
254.00,47.83874
255.00,48.29212
256.00,49.12931
257.00,49.89823
258.00,49.54265
259.00,49.8308
260.00,49.67841
261.00,50.69663
262.00,51.193
263.00,51.31916
264.00,50.92356
265.00,50.82811
266.00,51.69876
267.00,52.29401
268.00,52.48295
269.00,51.92675
270.00,51.8409
271.00,52.09873
272.00,52.71505
273.00,53.05477
274.00,53.23645
275.00,52.55296
276.00,52.22217
277.00,52.49295
278.00,53.24478
279.00,53.40059
280.00,54.11074
281.00,53.44146
282.00,52.79691
283.00,52.97151
284.00,52.76499
285.00,53.64911
286.00,54.30536
287.00,54.57008
288.00,54.66756
289.00,54.13463
290.00,53.51142
291.00,53.75
292.00,54.57091
293.00,54.87537
294.00,55.7656
295.00,55.7577
296.00,55.37809
297.00,54.69897
298.00,54.03668
299.00,54.74278
300.00,55.00292
301.00,55.51485
302.00,56.48873
303.00,56.28827
304.00,55.67542
305.00,55.42032
306.00,55.90461
307.00,56.07338
308.00,56.2255
309.00,56.81437
310.00,57.64922
311.00,57.65119
312.00,58.05933
313.00,57.82645
314.00,57.48209
315.00,56.80401
316.00,56.4837
317.00,56.47326
318.00,57.24832
319.00,57.93532
320.00,58.2584
321.00,58.51356
322.00,58.86319
323.00,58.44944
324.00,57.63857
325.00,56.8059
326.00,56.45863
327.00,56.72362
328.00,56.75201
329.00,57.62252
330.00,58.13281
331.00,58.54929
332.00,58.61879
333.00,58.57195
334.00,58.33136
335.00,57.32561
336.00,57.38115
337.00,57.27045
338.00,57.01047
339.00,57.52618
340.00,57.81267
341.00,58.38967
342.00,59.087
343.00,59.46092
344.00,59.476
345.00,59.16887
346.00,58.93325
347.00,58.40753
348.00,57.77231
349.00,57.50448
350.00,57.3612
351.00,57.84178
352.00,58.47366
353.00,59.07614
354.00,59.52008
355.00,60.24293
356.00,59.80305
357.00,60.16254
358.00,59.53438
359.00,59.02956
360.00,58.63849
361.00,58.24493
362.00,58.0353
363.00,58.09689
364.00,57.93317
365.00,58.48094
366.00,59.21387
367.00,59.63038
368.00,60.02737
369.00,60.29109
370.00,60.68276
371.00,60.18816
372.00,60.16687
373.00,59.47466
374.00,58.93054
375.00,58.49274
376.00,58.12929
377.00,58.26443
378.00,58.26784
379.00,58.60268
380.00,59.2568
381.00,59.78115
382.00,60.37146
383.00,60.65917
384.00,61.12347
385.00,61.16214
386.00,60.9228
387.00,60.61957
388.00,60.08608
389.00,59.78227
390.00,59.26453
391.00,58.98294
392.00,58.58647
393.00,58.60902
394.00,58.63079
395.00,58.90899
396.00,59.25102
397.00,60.11091
398.00,60.5068
399.00,61.05655
400.00,61.27893
401.00,62.0582279
402.00,61.9725799
403.00,61.8987186
404.00,61.7807405
405.00,60.64119
406.00,60.08312
407.00,59.71379
408.00,59.46348
409.00,59.12032
410.00,58.90009
411.00,58.95558
412.00,59.26547
413.00,59.27195871
414.00,59.88969058
415.00,60.42857066
416.00,60.77215494
417.00,61.38194616
418.00,61.54239672
419.00,61.77822396
420.00,61.93233568
421.00,61.70605195
422.00,61.5746142
423.00,61.18593621
424.00,60.70993284
425.00,60.23398125
426.00,59.75535005
427.00,59.47600056
428.00,59.06162832
429.00,59.10019141
430.00,58.95822926
431.00,59.15015134
432.00,59.24100598
433.00,59.61449004
434.00,60.07226898
435.00,60.56167814
436.00,60.95119826
437.00,61.41111796
438.00,61.74439506
439.00,62.00208414
440.00,62.10015471
441.00,62.14047381
442.00,62.08030908
443.00,61.74116757
444.00,61.51689135
445.00,61.0090964
446.00,60.691351
447.00,60.2237832
448.00,59.9350654
449.00,59.6787268
450.00,59.4752592
451.00,59.4450556
452.00,59.3434982
453.00,59.6302812
454.00,59.8442373
455.00,60.14675808
456.00,60.57316935
457.00,60.8781782
458.00,61.339866
459.00,61.75500948
460.00,62.25462297
461.00,62.3873586
462.00,62.5713536
463.00,62.646108
464.00,62.7050256
465.00,62.6214904
466.00,62.450451
467.00,62.134597
468.00,61.6908922
469.00,61.4035954
470.00,60.9443772
471.00,60.4615998
472.00,60.436992
473.00,60.21107244
474.00,59.97334671
475.00,59.88319281
476.00,60.02982694
477.00,60.16175277
478.00,60.27342157
479.00,60.45024361
480.00,60.91467179
481.00,61.2740329
482.00,61.78282902
483.00,62.24171037
484.00,62.69359845
485.00,62.94017079
486.00,63.30951963
487.00,63.40124938
488.00,63.6387048
489.00,63.7172217
490.00,63.6995502
491.00,63.6079296
492.00,63.32789282
493.00,63.12857299
494.00,62.72843692
495.00,62.308134
496.00,62.02629792
497.00,61.68168326
498.00,61.40918799
499.00,60.98635802
500.00,60.77304527
501.00,60.61551591
502.00,60.5993456
503.00,60.62472096
504.00,60.70423968
505.00,60.81383584
506.00,61.10488864
507.00,61.26721952
508.00,61.6410944
509.00,62.15432271
510.00,62.41400214
511.00,62.78037942
512.00,63.13588335
513.00,63.38516338
514.00,63.7883356
515.00,64.08908412
516.00,64.45431732
517.00,64.39671853
518.00,64.42861256
519.00,64.50260626
520.00,64.34100459
521.00,64.18707867
522.00,63.94594005
523.00,63.791145
524.00,63.50512131
525.00,63.10540143
526.00,62.69603121
527.00,62.40046707
528.00,62.0245134
529.00,61.80811002
530.00,61.59667167
531.00,61.43631219
532.00,61.13326844
533.00,61.19644184
534.00,61.08764986
535.00,61.08408633
536.00,61.15849356
537.00,61.09774752
538.00,61.26419904
539.00,61.51103772
540.00,61.7707144
541.00,61.93537462
542.00,62.30649003
543.00,62.61642519
544.00,62.7924592
545.00,63.19593536
546.00,63.37703488
547.00,63.71534656
548.00,63.84218368
549.00,63.9084008
550.00,64.03390752
551.00,64.06150496
552.00,64.0825552
553.00,63.92867616
554.00,63.80880288
555.00,63.67939648
556.00,63.33962709
557.00,63.06101115
558.00,62.86971474
559.00,62.56493446
560.00,62.29186278
561.00,61.98388182
562.00,61.9354864
563.00,61.60836025
564.00,61.4528514
565.00,61.38740364
566.00,61.26992713
567.00,61.20547108
568.00,61.17571063
569.00,61.20368645
570.00,61.34819772
571.00,61.24048358
572.00,61.41271842
573.00,61.65696894
574.00,61.65192768
575.00,61.96696971
576.00,62.16518328
577.00,62.59162012
578.00,62.6240065
579.00,62.89738275
580.00,63.18008215
581.00,63.5142927
582.00,63.70659316
583.00,63.70727541
584.00,64.05046614
585.00,64.18505856
586.00,64.26330752
587.00,64.348603
588.00,64.25004805
589.00,64.3067073
590.00,64.1690478
591.00,64.26760857
592.00,64.0610388
593.00,63.8512479
594.00,63.7336755
595.00,63.4002237
596.00,63.02196788
597.00,62.84831926
598.00,62.58391011
599.00,62.3627796
600.00,62.06009615
601.00,61.8718221
602.00,61.5722976
603.00,61.4039085
604.00,61.1719812
605.00,61.1602893
606.00,61.0044237
607.00,60.91588801
608.00,60.97231555
609.00,60.99559414
610.00,60.91913664
611.00,61.11297354
612.00,61.23627454
613.00,61.48129554
614.00,61.62752395
615.00,61.8385933
616.00,62.05566048
617.00,62.38153176
618.00,62.64508332
619.00,62.88137436
620.00,63.3052129
621.00,63.52027848
622.00,63.83426748
623.00,64.11479088
624.00,64.33589292
625.00,64.63364712
626.00,64.80779772
627.00,65.06122992
628.00,65.1166872
629.00,65.37779856
630.00,65.46612384
631.00,65.30789734
632.00,65.43507964
633.00,65.33584862
634.00,65.38519716
635.00,65.26855072
636.00,65.16792224
637.00,64.91312615
638.00,64.73663896
639.00,64.375938
640.00,64.3027572
641.00,64.13404893
642.00,63.79757135
643.00,63.65952736
644.00,63.23894564
645.00,63.02780192
646.00,62.70794352
647.00,62.56818788
648.00,62.42202085
649.00,62.2281039
650.00,61.81464384
651.00,61.89347208
652.00,61.77159221
653.00,61.46100356
654.00,61.40374314
655.00,61.46905596
656.00,61.38407376
657.00,61.41322908
658.00,61.51906917
659.00,61.49654541
660.00,61.77728799
661.00,61.69192137
662.00,62.02918917
663.00,62.19934362
664.00,62.28973296
665.00,62.48115549
666.00,62.79359418
667.00,62.95007349
668.00,63.28748844
669.00,63.66902877
670.00,63.92391219
671.00,64.07003214
672.00,64.27893609
673.00,64.94499585
674.00,64.7433374
675.00,65.041865
676.00,65.222528
677.00,65.5969566
678.00,65.7095978
679.00,65.88446788
680.00,66.08212798
681.00,65.96376258
682.00,66.25520658
683.00,66.30113346
684.00,66.15570847
685.00,66.21407504
686.00,66.06004275
687.00,65.912528
688.00,66.00977216
689.00,65.71679947
690.00,65.55505768
691.00,65.20231015
692.00,65.35139749
693.00,65.0773485
694.00,64.77760155
695.00,64.49341711
696.00,64.4246652
697.00,63.7770832
698.00,63.82751481
699.00,63.6852658
700.00,63.30550982
701.00,63.07814828
702.00,62.73220626
703.00,62.66797746
704.00,62.50553616
705.00,62.2009072
706.00,62.13833208
707.00,61.97699928
708.00,61.98762552
709.00,61.917257
710.00,61.60979175
711.00,61.53368303
712.00,61.6766458
713.00,61.2572436
714.00,61.5631488
715.00,61.3272506
716.00,61.47847134
717.00,61.3834061
718.00,61.9539054
719.00,61.900222
720.00,61.80305505
721.00,62.26524668
722.00,62.47549938
723.00,62.52963619
724.00,62.4442572
725.00,62.86285512
726.00,62.98261915
727.00,63.1739295
728.00,63.5408422
729.00,63.72377495
730.00,64.0260269
731.00,63.9538287
732.00,64.26515892
733.00,64.1333937
734.00,64.60879452
735.00,64.67295256
736.00,64.87795528
737.00,64.89409752
738.00,64.61592264
739.00,65.20414182
740.00,65.29326198
741.00,65.4796578
742.00,65.18280458
743.00,65.4738238
744.00,65.56873752
745.00,65.6577324
746.00,65.6775288
747.00,65.72421648
748.00,65.45650176
749.00,65.59143552
750.00,65.37900096
751.00,65.28141015
752.00,65.2079098
753.00,65.04635115
754.00,64.77646032
755.00,64.65721392
756.00,64.79901792
757.00,64.48999752
758.00,64.26158699
759.00,63.87437174
760.00,64.21375314
761.00,63.91399742
762.00,63.8835687
763.00,64.0967761
764.00,63.8502228
765.00,63.57754908
766.00,63.42364698
767.00,63.52812951
768.00,63.4572477
769.00,63.17070855
770.00,62.8740315
771.00,63.04371819
772.00,62.97102081
773.00,62.35424805
774.00,62.84047518
775.00,62.71784201
776.00,62.46216282
777.00,62.37292294
778.00,62.03031826
779.00,62.66834967
780.00,62.57629879
781.00,63.00090034
782.00,62.56564704
783.00,63.1190664
784.00,63.13083192
785.00,62.99428824
786.00,63.40196304
787.00,63.39940475
788.00,63.39833885
789.00,63.4865561
790.00,63.52247014
791.00,63.22580372
792.00,63.88690443
793.00,63.81969724
794.00,63.89187132
795.00,64.21384438
796.00,64.36994072
797.00,64.62449917
798.00,65.0652087
799.00,64.52212499
800.00,64.71418208
