"SamplMN1534BVslowResin - RawData"
"Wavelength nm.","T%"
200.00,0.25525
200.20,0.25438
200.40,0.24911
200.60,0.25031
200.80,0.23148
201.00,0.23302
201.20,0.22635
201.40,0.23278
201.60,0.23694
201.80,0.21632
202.00,0.19927
202.20,0.19692
202.40,0.19466
202.60,0.17523
202.80,0.19238
203.00,0.19197
203.20,0.19354
203.40,0.18466
203.60,0.17849
203.80,0.17649
204.00,0.16749
204.20,0.16792
204.40,0.16339
204.60,0.17095
204.80,0.16663
205.00,0.17072
205.20,0.16607
205.40,0.15954
205.60,0.14487
205.80,0.13884
206.00,0.13772
206.20,0.13313
206.40,0.13432
206.60,0.14540
206.80,0.14517
207.00,0.14300
207.20,0.14936
207.40,0.14937
207.60,0.14094
207.80,0.13920
208.00,0.13887
208.20,0.13305
208.40,0.13272
208.60,0.13525
208.80,0.13266
209.00,0.12791
209.20,0.12037
209.40,0.11861
209.60,0.11553
209.80,0.11014
210.00,0.11451
210.20,0.11842
210.40,0.11737
210.60,0.12125
210.80,0.13181
211.00,0.12345
211.20,0.11748
211.40,0.11609
211.60,0.11106
211.80,0.10301
212.00,0.10243
212.20,0.10296
212.40,0.09888
212.60,0.10064
212.80,0.10465
213.00,0.10413
213.20,0.10137
213.40,0.10413
213.60,0.10274
213.80,0.09639
214.00,0.09616
214.20,0.09594
214.40,0.09603
214.60,0.09006
214.80,0.09477
215.00,0.09676
215.20,0.10232
215.40,0.09771
215.60,0.09932
215.80,0.09865
216.00,0.09807
216.20,0.09646
216.40,0.09786
216.60,0.10004
216.80,0.09712
217.00,0.09924
217.20,0.09438
217.40,0.09201
217.60,0.09615
217.80,0.09717
218.00,0.09722
218.20,0.09998
218.40,0.10709
218.60,0.10636
218.80,0.10829
219.00,0.10964
219.20,0.11348
219.40,0.11140
219.60,0.10850
219.80,0.10603
220.00,0.10420
220.20,0.10220
220.40,0.10076
220.60,0.10467
220.80,0.10786
221.00,0.11081
221.20,0.11453
221.40,0.11860
221.60,0.11630
221.80,0.11650
222.00,0.11431
222.20,0.11145
222.40,0.11138
222.60,0.11541
222.80,0.11607
223.00,0.11727
223.20,0.11700
223.40,0.11500
223.60,0.11352
223.80,0.11630
224.00,0.11773
224.20,0.12173
224.40,0.12703
224.60,0.12771
224.80,0.12409
225.00,0.12169
225.20,0.12102
225.40,0.11545
225.60,0.11922
225.80,0.11921
226.00,0.12414
226.20,0.12378
226.40,0.12976
226.60,0.12858
226.80,0.13366
227.00,0.13518
227.20,0.13203
227.40,0.13437
227.60,0.13713
227.80,0.13835
228.00,0.13551
228.20,0.14104
228.40,0.13898
228.60,0.13605
228.80,0.13226
229.00,0.13478
229.20,0.13431
229.40,0.13356
229.60,0.13847
229.80,0.14081
230.00,0.13878
230.20,0.13682
230.40,0.14024
230.60,0.13540
230.80,0.13409
231.00,0.13748
231.20,0.14365
231.40,0.13990
231.60,0.14158
231.80,0.14607
232.00,0.14716
232.20,0.14856
232.40,0.15458
232.60,0.16484
232.80,0.17095
233.00,0.17998
233.20,0.19050
233.40,0.20930
233.60,0.22531
233.80,0.25093
234.00,0.27848
234.20,0.31592
234.40,0.35569
234.60,0.41070
234.80,0.47357
235.00,0.55619
235.20,0.64914
235.40,0.75726
235.60,0.88084
235.80,1.02593
236.00,1.19212
236.20,1.39048
236.40,1.62622
236.60,1.89724
236.80,2.20411
237.00,2.54779
237.20,2.93521
237.40,3.36208
237.60,3.84773
237.80,4.38358
238.00,4.96693
238.20,5.62292
238.40,6.33186
238.60,7.08918
238.80,7.91085
239.00,8.78312
239.20,9.68188
239.40,10.63515
239.60,11.61747
239.80,12.64960
240.00,13.74924
240.20,14.88029
240.40,16.04051
240.60,17.25268
240.80,18.49855
241.00,19.72828
241.20,20.96769
241.40,22.20552
241.60,23.44021
241.80,24.64095
242.00,25.83720
242.20,27.03383
242.40,28.20130
242.60,29.36356
242.80,30.50888
243.00,31.59001
243.20,32.66299
243.40,33.72939
243.60,34.75564
243.80,35.79440
244.00,36.82206
244.20,37.79124
244.40,38.72406
244.60,39.59153
244.80,40.38815
245.00,41.16248
245.20,41.86092
245.40,42.51624
245.60,43.14290
245.80,43.69320
246.00,44.21640
246.20,44.74255
246.40,45.24792
246.60,45.70107
246.80,46.15355
247.00,46.62915
247.20,47.09046
247.40,47.54478
247.60,48.01223
247.80,48.45913
248.00,48.85053
248.20,49.22555
248.40,49.53286
248.60,49.80334
248.80,50.11206
249.00,50.35343
249.20,50.51720
249.40,50.68089
249.60,50.86349
249.80,50.94523
250.00,51.02875
250.20,51.17474
250.40,51.33260
250.60,51.47604
250.80,51.67316
251.00,51.92903
251.20,52.14463
251.40,52.42130
251.60,52.68105
251.80,52.92092
252.00,53.14400
252.20,53.36601
252.40,53.52503
252.60,53.64101
252.80,53.76248
253.00,53.82345
253.20,53.88149
253.40,53.87490
253.60,53.88811
253.80,53.87666
254.00,53.87533
254.20,53.87502
254.40,53.90576
254.60,53.96244
254.80,54.03128
255.00,54.16089
255.20,54.32683
255.40,54.50181
255.60,54.69553
255.80,54.90761
256.00,55.10280
256.20,55.28330
256.40,55.46470
256.60,55.64750
256.80,55.78891
257.00,55.90178
257.20,55.98434
257.40,56.04700
257.60,56.05788
257.80,56.05642
258.00,56.04504
258.20,56.00765
258.40,55.97360
258.60,55.92987
258.80,55.91514
259.00,55.87865
259.20,55.88596
259.40,55.91668
259.60,55.96593
259.80,56.02856
260.00,56.13875
260.20,56.25513
260.40,56.39498
260.60,56.57448
260.80,56.72524
261.00,56.89953
261.20,57.12782
261.40,57.29952
261.60,57.45773
261.80,57.60057
262.00,57.74044
262.20,57.79707
262.40,57.84996
262.60,57.88538
262.80,57.88432
263.00,57.81915
263.20,57.76699
263.40,57.67182
263.60,57.55094
263.80,57.45825
264.00,57.39841
264.20,57.32401
264.40,57.28595
264.60,57.25533
264.80,57.25443
265.00,57.27538
265.20,57.31024
265.40,57.39344
265.60,57.51642
265.80,57.64472
266.00,57.79904
266.20,57.97551
266.40,58.15252
266.60,58.33133
266.80,58.50513
267.00,58.64333
267.20,58.77047
267.40,58.88761
267.60,58.96270
267.80,59.00860
268.00,59.02999
268.20,59.01178
268.40,58.92100
268.60,58.82677
268.80,58.70809
269.00,58.59735
269.20,58.47406
269.40,58.37982
269.60,58.28939
269.80,58.21467
270.00,58.15098
270.20,58.08116
270.40,58.03376
270.60,58.00697
270.80,58.05796
271.00,58.08387
271.20,58.18631
271.40,58.31174
271.60,58.49481
271.80,58.61968
272.00,58.77566
272.20,58.91145
272.40,59.06819
272.60,59.16350
272.80,59.32786
273.00,59.42528
273.20,59.52733
273.40,59.60065
273.60,59.64075
273.80,59.62803
274.00,59.64320
274.20,59.59615
274.40,59.54257
274.60,59.46056
274.80,59.37490
275.00,59.29288
275.20,59.17194
275.40,59.03240
275.60,58.92165
275.80,58.79360
276.00,58.64289
276.20,58.60089
276.40,58.56773
276.60,58.52996
276.80,58.55156
277.00,58.60513
277.20,58.63361
277.40,58.68536
277.60,58.83552
277.80,58.95025
278.00,59.07360
278.20,59.25835
278.40,59.43578
278.60,59.57167
278.80,59.72049
279.00,59.90015
279.20,60.01499
279.40,60.12969
279.60,60.24836
279.80,60.32252
280.00,60.34592
280.20,60.36694
280.40,60.38328
280.60,60.32617
280.80,60.27271
281.00,60.15238
281.20,60.02750
281.40,59.91804
281.60,59.81193
281.80,59.69164
282.00,59.62130
282.20,59.52717
282.40,59.39952
282.60,59.30184
282.80,59.23300
283.00,59.15859
283.20,59.08351
283.40,59.08036
283.60,59.08134
283.80,59.11576
284.00,59.20710
284.20,59.36004
284.40,59.45500
284.60,59.60361
284.80,59.74293
285.00,59.91316
285.20,60.07145
285.40,60.24743
285.60,60.40488
285.80,60.51603
286.00,60.62421
286.20,60.74898
286.40,60.87786
286.60,60.99257
286.80,61.13645
287.00,61.21686
287.20,61.25872
287.40,61.27671
287.60,61.26564
287.80,61.23556
288.00,61.20939
288.20,61.13576
288.40,61.00979
288.60,60.91558
288.80,60.78591
289.00,60.64932
289.20,60.57816
289.40,60.52500
289.60,60.39834
289.80,60.26954
290.00,60.17143
290.20,60.05998
290.40,59.96256
290.60,59.92935
290.80,59.95461
291.00,59.96082
291.20,59.99239
291.40,60.09341
291.60,60.15723
291.80,60.23265
292.00,60.35128
292.20,60.52257
292.40,60.60975
292.60,60.79664
292.80,61.02956
293.00,61.20601
293.20,61.31806
293.40,61.49793
293.60,61.64854
293.80,61.76473
294.00,61.92591
294.20,62.06151
294.40,62.17608
294.60,62.23294
294.80,62.28120
295.00,62.27986
295.20,62.25415
295.40,62.21088
295.60,62.16453
295.80,62.07408
296.00,62.00864
296.20,61.92024
296.40,61.81793
296.60,61.72203
296.80,61.60823
297.00,61.44812
297.20,61.35603
297.40,61.22838
297.60,61.12021
297.80,61.02672
298.00,60.96936
298.20,60.83949
298.40,60.79719
298.60,60.73887
298.80,60.71318
299.00,60.65125
299.20,60.73307
299.40,60.77819
299.60,60.89368
299.80,61.00209
300.00,61.18315
300.20,61.28628
300.40,61.47251
300.60,61.59240
300.80,61.72875
301.00,61.88343
301.20,62.08013
301.40,62.21523
301.60,62.41217
301.80,62.57542
302.00,62.69104
302.20,62.76058
302.40,62.83120
302.60,62.85484
302.80,62.92607
303.00,62.98084
303.20,62.99341
303.40,62.95983
303.60,62.95354
303.80,62.86147
304.00,62.81187
304.20,62.75809
304.40,62.68685
304.60,62.55833
304.80,62.40656
305.00,62.20437
305.20,62.02391
305.40,61.85042
305.60,61.68646
305.80,61.55018
306.00,61.44794
306.20,61.31710
306.40,61.23218
306.60,61.16085
306.80,61.11527
307.00,61.03636
307.20,60.99305
307.40,61.01128
307.60,61.00523
307.80,61.04146
308.00,61.10232
308.20,61.21098
308.40,61.26544
308.60,61.34211
308.80,61.44215
309.00,61.55800
309.20,61.71007
309.40,61.85067
309.60,62.02233
309.80,62.18190
310.00,62.35018
310.20,62.49747
310.40,62.63258
310.60,62.77037
310.80,62.93316
311.00,63.03390
311.20,63.10755
311.40,63.23617
311.60,63.31280
311.80,63.30909
312.00,63.40282
312.20,63.46110
312.40,63.45771
312.60,63.45693
312.80,63.46194
313.00,63.40993
313.20,63.29487
313.40,63.22309
313.60,63.09374
313.80,62.97882
314.00,62.84434
314.20,62.74657
314.40,62.59742
314.60,62.47379
314.80,62.32397
315.00,62.21812
315.20,62.08053
315.40,61.97719
315.60,61.88596
315.80,61.80333
316.00,61.70895
316.20,61.65465
316.40,61.59812
316.60,61.55384
316.80,61.52360
317.00,61.52322
317.20,61.54755
317.40,61.57554
317.60,61.63273
317.80,61.72522
318.00,61.79896
318.20,61.90141
318.40,61.99085
318.60,62.11071
318.80,62.24025
319.00,62.40102
319.20,62.53769
319.40,62.75365
319.60,62.92623
319.80,63.07737
320.00,63.21023
320.20,63.37287
320.40,63.44530
320.60,63.56112
320.80,63.69885
321.00,63.77293
321.20,63.81443
321.40,63.93795
321.60,63.99082
321.80,63.98548
322.00,64.01845
322.20,64.06186
322.40,63.99462
322.60,63.96784
322.80,63.93636
323.00,63.84997
323.20,63.73286
323.40,63.63392
323.60,63.53589
323.80,63.44097
324.00,63.33696
324.20,63.24968
324.40,63.09956
324.60,62.95291
324.80,62.77156
325.00,62.64961
325.20,62.49335
325.40,62.41493
325.60,62.25566
325.80,62.18528
326.00,62.13102
326.20,62.04536
326.40,61.98607
326.60,62.01487
326.80,61.97303
327.00,61.91028
327.20,61.99086
327.40,62.01211
327.60,62.05032
327.80,62.12655
328.00,62.18087
328.20,62.24983
328.40,62.35817
328.60,62.50768
328.80,62.64967
329.00,62.82792
329.20,62.95596
329.40,63.07063
329.60,63.18977
329.80,63.32170
330.00,63.47649
330.20,63.61569
330.40,63.76159
330.60,63.90122
330.80,64.04795
331.00,64.15643
331.20,64.25279
331.40,64.37051
331.60,64.42462
331.80,64.42836
332.00,64.46369
332.20,64.53310
332.40,64.52083
332.60,64.51809
332.80,64.54842
333.00,64.55403
333.20,64.50282
333.40,64.48722
333.60,64.42252
333.80,64.37685
334.00,64.30094
334.20,64.19188
334.40,64.12117
334.60,64.03795
334.80,63.87907
335.00,63.73356
335.20,63.62038
335.40,63.50567
335.60,63.34876
335.80,63.25760
336.00,63.12158
336.20,63.00632
336.40,62.88264
336.60,62.83030
336.80,62.74821
337.00,62.69588
337.20,62.64952
337.40,62.57583
337.60,62.50235
337.80,62.42760
338.00,62.41311
338.20,62.36501
338.40,62.37944
338.60,62.41968
338.80,62.52668
339.00,62.55970
339.20,62.64954
339.40,62.71178
339.60,62.77622
339.80,62.85681
340.00,62.97653
340.20,63.09683
340.40,63.26438
340.60,63.40183
340.80,63.51731
341.00,63.66413
341.20,63.82946
341.40,63.95869
341.60,64.10753
341.80,64.24087
342.00,64.37444
342.20,64.47716
342.40,64.61638
342.60,64.74155
342.80,64.86945
343.00,64.96857
343.20,65.05815
343.40,65.12395
343.60,65.16495
343.80,65.19356
344.00,65.22667
344.20,65.25057
344.40,65.25075
344.60,65.28217
344.80,65.27064
345.00,65.23683
345.20,65.17352
345.40,65.11318
345.60,65.02582
345.80,64.93351
346.00,64.79287
346.20,64.68819
346.40,64.56539
346.60,64.40533
346.80,64.30594
347.00,64.21046
347.20,64.09214
347.40,63.96477
347.60,63.85025
347.80,63.70192
348.00,63.58766
348.20,63.49100
348.40,63.39666
348.60,63.31380
348.80,63.22636
349.00,63.15211
349.20,63.04780
349.40,62.97172
349.60,62.92475
349.80,62.92470
350.00,62.92039
350.20,62.91981
350.40,62.94646
350.60,62.96748
350.80,62.99087
351.00,63.02394
351.20,63.10095
351.40,63.16994
351.60,63.28416
351.80,63.34977
352.00,63.47989
352.20,63.59065
352.40,63.69830
352.60,63.79129
352.80,63.93555
353.00,64.05278
353.20,64.19711
353.40,64.33653
353.60,64.49118
353.80,64.62657
354.00,64.73779
354.20,64.85760
354.40,64.98517
354.60,65.10597
354.80,65.24478
355.00,65.35568
355.20,65.44703
355.40,65.52988
355.60,65.60205
355.80,65.62944
356.00,65.71250
356.20,65.75704
356.40,65.79713
356.60,65.84203
356.80,65.85648
357.00,65.83833
357.20,65.83604
357.40,65.81829
357.60,65.76219
357.80,65.73932
358.00,65.69020
358.20,65.59135
358.40,65.51479
358.60,65.41393
358.80,65.33967
359.00,65.24290
359.20,65.15959
359.40,65.02399
359.60,64.90129
359.80,64.76961
360.00,64.63198
360.20,64.52078
360.40,64.41488
360.60,64.30522
360.80,64.16162
361.00,64.07825
361.20,63.97364
361.40,63.83624
361.60,63.73942
361.80,63.63973
362.00,63.50915
362.20,63.40066
362.40,63.35248
362.60,63.30557
362.80,63.27706
363.00,63.25117
363.20,63.27612
363.40,63.28378
363.60,63.26961
363.80,63.25656
364.00,63.29460
364.20,63.30924
364.40,63.34355
364.60,63.41465
364.80,63.49175
365.00,63.57900
365.20,63.68552
365.40,63.76541
365.60,63.84763
365.80,63.97073
366.00,64.08080
366.20,64.17060
366.40,64.30545
366.60,64.43199
366.80,64.57527
367.00,64.70195
367.20,64.81383
367.40,64.97353
367.60,65.12964
367.80,65.25610
368.00,65.37216
368.20,65.50918
368.40,65.61588
368.60,65.72002
368.80,65.80323
369.00,65.87965
369.20,65.98216
369.40,65.99934
369.60,66.05492
369.80,66.12850
370.00,66.22676
370.20,66.24224
370.40,66.29772
370.60,66.30431
370.80,66.27162
371.00,66.24766
371.20,66.23210
371.40,66.19715
371.60,66.12225
371.80,66.08227
372.00,65.98141
372.20,65.88234
372.40,65.82205
372.60,65.74296
372.80,65.64999
373.00,65.57570
373.20,65.49084
373.40,65.34675
373.60,65.22800
373.80,65.08773
374.00,64.94449
374.20,64.81573
374.40,64.72805
374.60,64.61356
374.80,64.52056
375.00,64.39969
375.20,64.26783
375.40,64.15234
375.60,64.06372
375.80,63.96042
376.00,63.89500
376.20,63.85405
376.40,63.77110
376.60,63.69457
376.80,63.65792
377.00,63.59478
377.20,63.53512
377.40,63.53596
377.60,63.54015
377.80,63.52718
378.00,63.54195
378.20,63.56184
378.40,63.56737
378.60,63.60775
378.80,63.65436
379.00,63.71211
379.20,63.79640
379.40,63.88199
379.60,63.94073
379.80,64.01604
380.00,64.11653
380.20,64.22808
380.40,64.30728
380.60,64.43405
380.80,64.54653
381.00,64.62255
381.20,64.71893
381.40,64.85192
381.60,64.96636
381.80,65.09081
382.00,65.23844
382.20,65.34916
382.40,65.45990
382.60,65.56708
382.80,65.68193
383.00,65.79148
383.20,65.90767
383.40,66.02349
383.60,66.13722
383.80,66.22874
384.00,66.32545
384.20,66.39941
384.40,66.45808
384.60,66.53554
384.80,66.60066
385.00,66.62331
385.20,66.64293
385.40,66.67318
385.60,66.67726
385.80,66.68473
386.00,66.69364
386.20,66.68805
386.40,66.66535
386.60,66.64594
386.80,66.60857
387.00,66.55608
387.20,66.52350
387.40,66.46483
387.60,66.36250
387.80,66.29198
388.00,66.20482
388.20,66.09716
388.40,66.01589
388.60,65.92254
388.80,65.81386
389.00,65.70125
389.20,65.60750
389.40,65.48592
389.60,65.38069
389.80,65.24585
390.00,65.14555
390.20,65.03214
390.40,64.92698
390.60,64.81386
390.80,64.71348
391.00,64.59618
391.20,64.48070
391.40,64.36495
391.60,64.28207
391.80,64.18465
392.00,64.13643
392.20,64.09112
392.40,64.02770
392.60,63.96692
392.80,63.94289
393.00,63.88418
393.20,63.83036
393.40,63.83222
393.60,63.83519
393.80,63.83268
394.00,63.87099
394.20,63.89931
394.40,63.92289
394.60,63.93112
394.80,63.97207
395.00,63.99243
395.20,64.04947
395.40,64.10341
395.60,64.18968
395.80,64.25975
396.00,64.36321
396.20,64.45764
396.40,64.56217
396.60,64.68163
396.80,64.78304
397.00,64.86900
397.20,64.98364
397.40,65.08699
397.60,65.19536
397.80,65.33039
398.00,65.47200
398.20,65.58448
398.40,65.69329
398.60,65.80904
398.80,65.90732
399.00,66.02563
399.20,66.13722
399.40,66.27553
399.60,66.39625
399.80,66.50954
400.00,66.59235
400.20,66.68342
400.40,66.75532
400.60,66.81685
400.80,66.89961
401.00,66.96303
401.20,67.02606
401.40,67.06724
401.60,67.10835
401.80,67.12086
402.00,67.15346
402.20,67.16557
402.40,67.18329
402.60,67.19744
402.80,67.18758
403.00,67.16934
403.20,67.15053
403.40,67.13323
403.60,67.07805
403.80,67.05756
404.00,67.01011
404.20,66.94357
404.40,66.87179
404.60,66.81649
404.80,66.75010
405.00,66.66011
405.20,66.59765
405.40,66.53538
405.60,66.45680
405.80,66.34974
406.00,66.28198
406.20,66.17076
406.40,66.04609
406.60,65.92707
406.80,65.82944
407.00,65.70567
407.20,65.59724
407.40,65.50089
407.60,65.41334
407.80,65.31135
408.00,65.21351
408.20,65.12973
408.40,65.03282
408.60,64.94132
408.80,64.85307
409.00,64.77762
409.20,64.67506
409.40,64.60465
409.60,64.53166
409.80,64.45713
410.00,64.41225
410.20,64.37940
410.40,64.32991
410.60,64.30452
410.80,64.29460
411.00,64.28337
411.20,64.28059
411.40,64.28822
411.60,64.28561
411.80,64.31081
412.00,64.32081
412.20,64.34904
412.40,64.38240
412.60,64.42080
412.80,64.46505
413.00,64.52468
413.20,64.59129
413.40,64.66084
413.60,64.75015
413.80,64.84020
414.00,64.93454
414.20,65.03079
414.40,65.14006
414.60,65.25353
414.80,65.36116
415.00,65.47447
415.20,65.58925
415.40,65.70805
415.60,65.83517
415.80,65.95659
416.00,66.06871
416.20,66.18769
416.40,66.30879
416.60,66.42439
416.80,66.53364
417.00,66.66484
417.20,66.80142
417.40,66.91707
417.60,67.02510
417.80,67.13603
418.00,67.23393
418.20,67.34517
418.40,67.46342
418.60,67.56878
418.80,67.66965
419.00,67.77791
419.20,67.84968
419.40,67.92450
419.60,67.98089
419.80,68.04959
420.00,68.07792
420.20,68.12651
420.40,68.14284
420.60,68.18392
420.80,68.22368
421.00,68.24496
421.20,68.24882
421.40,68.26372
421.60,68.25510
421.80,68.23207
422.00,68.22119
422.20,68.20003
422.40,68.17728
422.60,68.14744
422.80,68.08752
423.00,68.04102
423.20,67.99492
423.40,67.92905
423.60,67.86597
423.80,67.80482
424.00,67.73145
424.20,67.65431
424.40,67.57053
424.60,67.48493
424.80,67.40617
425.00,67.32433
425.20,67.21830
425.40,67.12366
425.60,67.03751
425.80,66.93873
426.00,66.82577
426.20,66.74873
426.40,66.66258
426.60,66.56769
426.80,66.48376
427.00,66.40892
427.20,66.31722
427.40,66.23223
427.60,66.15362
427.80,66.07413
428.00,66.01082
428.20,65.94472
428.40,65.89305
428.60,65.82765
428.80,65.78524
429.00,65.72462
429.20,65.68049
429.40,65.62666
429.60,65.58970
429.80,65.53678
430.00,65.52458
430.20,65.50318
430.40,65.49690
430.60,65.49035
430.80,65.50419
431.00,65.50571
431.20,65.51393
431.40,65.54341
431.60,65.58167
431.80,65.60754
432.00,65.63408
432.20,65.69325
432.40,65.73928
432.60,65.78074
432.80,65.82912
433.00,65.89006
433.20,65.92546
433.40,65.99553
433.60,66.08284
433.80,66.17705
434.00,66.27064
434.20,66.36673
434.40,66.45291
434.60,66.54927
434.80,66.63156
435.00,66.72505
435.20,66.83876
435.40,66.94142
435.60,67.03647
435.80,67.15083
436.00,67.26457
436.20,67.38273
436.40,67.48421
436.60,67.60206
436.80,67.71898
437.00,67.83556
437.20,67.92192
437.40,68.03764
437.60,68.11988
437.80,68.21553
438.00,68.30311
438.20,68.40926
438.40,68.49424
438.60,68.60147
438.80,68.68352
439.00,68.75654
439.20,68.84404
439.40,68.91386
439.60,68.97081
439.80,69.03823
440.00,69.09901
440.20,69.13460
440.40,69.18790
440.60,69.22126
440.80,69.25229
441.00,69.27517
441.20,69.30637
441.40,69.30013
441.60,69.31024
441.80,69.29783
442.00,69.29395
442.20,69.27056
442.40,69.26397
442.60,69.24353
442.80,69.22709
443.00,69.19246
443.20,69.14921
443.40,69.09525
443.60,69.03782
443.80,68.95777
444.00,68.89665
444.20,68.83613
444.40,68.76183
444.60,68.68779
444.80,68.62216
445.00,68.54439
445.20,68.45477
445.40,68.37110
445.60,68.28523
445.80,68.20424
446.00,68.09464
446.20,68.00022
446.40,67.91043
446.60,67.80569
446.80,67.69813
447.00,67.60889
447.20,67.50605
447.40,67.41295
447.60,67.31042
447.80,67.21427
448.00,67.11818
448.20,67.03899
448.40,66.94710
448.60,66.86680
448.80,66.78319
449.00,66.71159
449.20,66.62015
449.40,66.54819
449.60,66.49508
449.80,66.43596
450.00,66.37191
450.20,66.31421
450.40,66.25957
450.60,66.19381
450.80,66.15159
451.00,66.11596
451.20,66.09972
451.40,66.06889
451.60,66.04015
451.80,66.03187
452.00,66.00383
452.20,65.98849
452.40,65.97435
452.60,65.98210
452.80,65.97061
453.00,65.97711
453.20,65.97687
453.40,66.00642
453.60,66.02818
453.80,66.07335
454.00,66.11109
454.20,66.15628
454.40,66.20741
454.60,66.26469
454.80,66.30006
455.00,66.37012
455.20,66.43828
455.40,66.49650
455.60,66.55735
455.80,66.63582
456.00,66.70159
456.20,66.77350
456.40,66.85564
456.60,66.94779
456.80,67.03880
457.00,67.13964
457.20,67.23534
457.40,67.32605
457.60,67.41716
457.80,67.51870
458.00,67.61129
458.20,67.69835
458.40,67.81198
458.60,67.90814
458.80,67.99325
459.00,68.08319
459.20,68.18833
459.40,68.27511
459.60,68.37438
459.80,68.48503
460.00,68.58741
460.20,68.69983
460.40,68.80011
460.60,68.90864
460.80,68.99928
461.00,69.09351
461.20,69.16324
461.40,69.23808
461.60,69.30521
461.80,69.36619
462.00,69.42635
462.20,69.48735
462.40,69.54215
462.60,69.60331
462.80,69.65019
463.00,69.69398
463.20,69.71706
463.40,69.74589
463.60,69.76563
463.80,69.78148
464.00,69.78708
464.20,69.79994
464.40,69.81068
464.60,69.79091
464.80,69.77904
465.00,69.78026
465.20,69.77383
465.40,69.74078
465.60,69.72172
465.80,69.69673
466.00,69.64766
466.20,69.61014
466.40,69.57119
466.60,69.52010
466.80,69.45808
467.00,69.41632
467.20,69.34686
467.40,69.27566
467.60,69.20618
467.80,69.15087
468.00,69.05870
468.20,68.97630
468.40,68.89799
468.60,68.81025
468.80,68.71529
469.00,68.63192
469.20,68.54784
469.40,68.45142
469.60,68.37178
469.80,68.28245
470.00,68.21156
470.20,68.13210
470.40,68.05178
470.60,67.94578
470.80,67.84175
471.00,67.74417
471.20,67.65869
471.40,67.57302
471.60,67.49516
471.80,67.42678
472.00,67.34219
472.20,67.25046
472.40,67.17682
472.60,67.09360
472.80,67.01335
473.00,66.93791
473.20,66.87458
473.40,66.78984
473.60,66.73378
473.80,66.67501
474.00,66.61897
474.20,66.55457
474.40,66.52395
474.60,66.47081
474.80,66.44182
475.00,66.40000
475.20,66.37029
475.40,66.32585
475.60,66.29097
475.80,66.26481
476.00,66.24852
476.20,66.23195
476.40,66.22667
476.60,66.24312
476.80,66.24050
477.00,66.23770
477.20,66.24315
477.40,66.24331
477.60,66.25417
477.80,66.26372
478.00,66.28645
478.20,66.32379
478.40,66.36549
478.60,66.39699
478.80,66.43996
479.00,66.48826
479.20,66.53720
479.40,66.58254
479.60,66.63890
479.80,66.69868
480.00,66.75649
480.20,66.80745
480.40,66.86609
480.60,66.94109
480.80,67.00448
481.00,67.08916
481.20,67.17277
481.40,67.27545
481.60,67.34557
481.80,67.42474
482.00,67.49885
482.20,67.57843
482.40,67.66105
482.60,67.75326
482.80,67.85564
483.00,67.95662
483.20,68.05950
483.40,68.14685
483.60,68.24403
483.80,68.34667
484.00,68.43241
484.20,68.51791
484.40,68.62448
484.60,68.72103
484.80,68.80277
485.00,68.89101
485.20,68.98262
485.40,69.05995
485.60,69.15250
485.80,69.24016
486.00,69.31842
486.20,69.38515
486.40,69.45229
486.60,69.52245
486.80,69.58824
487.00,69.65678
487.20,69.72337
487.40,69.78292
487.60,69.81706
487.80,69.85829
488.00,69.90187
488.20,69.94967
488.40,69.98283
488.60,70.03257
488.80,70.06759
489.00,70.10120
489.20,70.11544
489.40,70.14563
489.60,70.14424
489.80,70.14425
490.00,70.14381
490.20,70.14751
490.40,70.13618
490.60,70.13161
490.80,70.12818
491.00,70.11229
491.20,70.09494
491.40,70.07698
491.60,70.05322
491.80,70.01240
492.00,69.97439
492.20,69.94045
492.40,69.87931
492.60,69.83888
492.80,69.81239
493.00,69.75627
493.20,69.69988
493.40,69.65972
493.60,69.60918
493.80,69.52462
494.00,69.46976
494.20,69.39963
494.40,69.32276
494.60,69.24667
494.80,69.17605
495.00,69.10295
495.20,69.02412
495.40,68.94169
495.60,68.86316
495.80,68.78585
496.00,68.69708
496.20,68.62109
496.40,68.53596
496.60,68.43755
496.80,68.37212
497.00,68.29888
497.20,68.21687
497.40,68.14061
497.60,68.07410
497.80,67.97298
498.00,67.87651
498.20,67.78049
498.40,67.70493
498.60,67.61027
498.80,67.52997
499.00,67.46729
499.20,67.40373
499.40,67.31402
499.60,67.25700
499.80,67.19990
500.00,67.12502
500.20,67.05800
500.40,67.02402
500.60,66.95589
500.80,66.90239
501.00,66.85240
501.20,66.80452
501.40,66.74831
501.60,66.70527
501.80,66.65440
502.00,66.61189
502.20,66.57213
502.40,66.52426
502.60,66.49143
502.80,66.46740
503.00,66.45244
503.20,66.43453
503.40,66.43211
503.60,66.42507
503.80,66.41344
504.00,66.40134
504.20,66.40785
504.40,66.40437
504.60,66.40265
504.80,66.40443
505.00,66.43186
505.20,66.43475
505.40,66.46077
505.60,66.49627
505.80,66.52879
506.00,66.54233
506.20,66.59451
506.40,66.62639
506.60,66.65342
506.80,66.69767
507.00,66.74007
507.20,66.78674
507.40,66.84824
507.60,66.92296
507.80,66.98909
508.00,67.06529
508.20,67.11624
508.40,67.17141
508.60,67.22483
508.80,67.28905
509.00,67.34429
509.20,67.41862
509.40,67.50534
509.60,67.57570
509.80,67.64372
510.00,67.73433
510.20,67.80984
510.40,67.89117
510.60,67.98009
510.80,68.06608
511.00,68.13616
511.20,68.22076
511.40,68.30063
511.60,68.38005
511.80,68.45818
512.00,68.55621
512.20,68.64027
512.40,68.72262
512.60,68.79861
512.80,68.87667
513.00,68.94311
513.20,69.01973
513.40,69.09063
513.60,69.16692
513.80,69.24558
514.00,69.32173
514.20,69.39192
514.40,69.45574
514.60,69.52026
514.80,69.59305
515.00,69.66319
515.20,69.71815
515.40,69.78347
515.60,69.84870
515.80,69.89278
516.00,69.93660
516.20,69.99807
516.40,70.04292
516.60,70.08678
516.80,70.13338
517.00,70.17599
517.20,70.21422
517.40,70.23988
517.60,70.25789
517.80,70.29451
518.00,70.31018
518.20,70.32840
518.40,70.35248
518.60,70.37323
518.80,70.36318
519.00,70.36835
519.20,70.35972
519.40,70.35832
519.60,70.35037
519.80,70.34447
520.00,70.34525
520.20,70.33181
520.40,70.31067
520.60,70.29048
520.80,70.27230
521.00,70.23552
521.20,70.22432
521.40,70.18868
521.60,70.16207
521.80,70.12744
522.00,70.08901
522.20,70.02754
522.40,69.97771
522.60,69.93049
522.80,69.86893
523.00,69.80955
523.20,69.74078
523.40,69.70568
523.60,69.64771
523.80,69.58807
524.00,69.53206
524.20,69.47694
524.40,69.39496
524.60,69.31185
524.80,69.24362
525.00,69.17659
525.20,69.09746
525.40,69.02255
525.60,68.95945
525.80,68.88579
526.00,68.79531
526.20,68.73564
526.40,68.65090
526.60,68.56055
526.80,68.48286
527.00,68.41526
527.20,68.33038
527.40,68.24335
527.60,68.16074
527.80,68.08851
528.00,68.01739
528.20,67.94749
528.40,67.89357
528.60,67.82993
528.80,67.75044
529.00,67.66223
529.20,67.58165
529.40,67.50521
529.60,67.42885
529.80,67.36510
530.00,67.31160
530.20,67.24551
530.40,67.17989
530.60,67.12452
530.80,67.05740
531.00,66.99175
531.20,66.94667
531.40,66.89963
531.60,66.84729
531.80,66.80928
532.00,66.75988
532.20,66.71633
532.40,66.68415
532.60,66.64401
532.80,66.61383
533.00,66.60385
533.20,66.58048
533.40,66.54530
533.60,66.53993
533.80,66.51944
534.00,66.48150
534.20,66.45324
534.40,66.44301
534.60,66.42796
534.80,66.41503
535.00,66.42268
535.20,66.44309
535.40,66.46336
535.60,66.47206
535.80,66.48995
536.00,66.51025
536.20,66.53066
536.40,66.55459
536.60,66.58458
536.80,66.62089
537.00,66.64985
537.20,66.67516
537.40,66.69287
537.60,66.73207
537.80,66.76048
538.00,66.80067
538.20,66.84114
538.40,66.88215
538.60,66.90981
538.80,66.94970
539.00,66.99907
539.20,67.04727
539.40,67.10001
539.60,67.16305
539.80,67.22100
540.00,67.26704
540.20,67.32199
540.40,67.38722
540.60,67.44246
540.80,67.50248
541.00,67.57309
541.20,67.64120
541.40,67.70084
541.60,67.77424
541.80,67.84636
542.00,67.91054
542.20,67.97891
542.40,68.05134
542.60,68.12596
542.80,68.20098
543.00,68.27070
543.20,68.34390
543.40,68.41335
543.60,68.48537
543.80,68.55317
544.00,68.62784
544.20,68.70507
544.40,68.78120
544.60,68.84662
544.80,68.93046
545.00,69.00734
545.20,69.07499
545.40,69.14579
545.60,69.22417
545.80,69.29405
546.00,69.35397
546.20,69.42780
546.40,69.49854
546.60,69.54735
546.80,69.61071
547.00,69.69157
547.20,69.74610
547.40,69.80768
547.60,69.88853
547.80,69.94206
548.00,69.98875
548.20,70.04977
548.40,70.10132
548.60,70.14195
548.80,70.19345
549.00,70.25124
549.20,70.29583
549.40,70.33907
549.60,70.37748
549.80,70.41267
550.00,70.42162
550.20,70.44423
550.40,70.46956
550.60,70.49968
550.80,70.53165
551.00,70.55520
551.20,70.57885
551.40,70.60105
551.60,70.59697
551.80,70.59166
552.00,70.60487
552.20,70.60456
552.40,70.59852
552.60,70.60346
552.80,70.59996
553.00,70.59842
553.20,70.59090
553.40,70.57546
553.60,70.56172
553.80,70.54357
554.00,70.51060
554.20,70.47780
554.40,70.44514
554.60,70.40407
554.80,70.37474
555.00,70.34247
555.20,70.30387
555.40,70.26793
555.60,70.23411
555.80,70.18915
556.00,70.15135
556.20,70.10637
556.40,70.05329
556.60,70.01692
556.80,69.96590
557.00,69.90646
557.20,69.85007
557.40,69.78834
557.60,69.70839
557.80,69.64626
558.00,69.58044
558.20,69.52485
558.40,69.47383
558.60,69.41975
558.80,69.34657
559.00,69.29259
559.20,69.21576
559.40,69.14170
559.60,69.06964
559.80,69.00547
560.00,68.93138
560.20,68.86494
560.40,68.80250
560.60,68.73104
560.80,68.64653
561.00,68.56068
561.20,68.47937
561.40,68.41158
561.60,68.34009
561.80,68.28491
562.00,68.23022
562.20,68.18173
562.40,68.09800
562.60,68.03957
562.80,67.98654
563.00,67.91680
563.20,67.84319
563.40,67.78921
563.60,67.72867
563.80,67.65676
564.00,67.59840
564.20,67.54177
564.40,67.48623
564.60,67.42724
564.80,67.36916
565.00,67.31857
565.20,67.26592
565.40,67.22104
565.60,67.17964
565.80,67.13455
566.00,67.08958
566.20,67.04800
566.40,67.00774
566.60,66.96510
566.80,66.93203
567.00,66.89195
567.20,66.86600
567.40,66.82634
567.60,66.78350
567.80,66.75121
568.00,66.72450
568.20,66.69340
568.40,66.66911
568.60,66.65658
568.80,66.63935
569.00,66.62041
569.20,66.61481
569.40,66.61702
569.60,66.60947
569.80,66.60343
570.00,66.60626
570.20,66.60154
570.40,66.58827
570.60,66.57758
570.80,66.57912
571.00,66.59337
571.20,66.59345
571.40,66.61803
571.60,66.63463
571.80,66.65480
572.00,66.66881
572.20,66.69095
572.40,66.69609
572.60,66.72758
572.80,66.74023
573.00,66.77079
573.20,66.80415
573.40,66.83671
573.60,66.88015
573.80,66.92704
574.00,66.95886
574.20,66.99123
574.40,67.04824
574.60,67.09349
574.80,67.14390
575.00,67.18970
575.20,67.24630
575.40,67.28727
575.60,67.33221
575.80,67.38186
576.00,67.45172
576.20,67.51409
576.40,67.57811
576.60,67.63890
576.80,67.69350
577.00,67.73984
577.20,67.79047
577.40,67.84847
577.60,67.91195
577.80,67.97774
578.00,68.04749
578.20,68.11779
578.40,68.18070
578.60,68.24912
578.80,68.31779
579.00,68.37584
579.20,68.43685
579.40,68.49192
579.60,68.55535
579.80,68.61907
580.00,68.69273
580.20,68.75324
580.40,68.84120
580.60,68.91186
580.80,68.99224
581.00,69.06508
581.20,69.14551
581.40,69.21109
581.60,69.27750
581.80,69.34253
582.00,69.40658
582.20,69.47878
582.40,69.54535
582.60,69.60293
582.80,69.65980
583.00,69.72139
583.20,69.78891
583.40,69.84439
583.60,69.90505
583.80,69.96700
584.00,70.02079
584.20,70.06797
584.40,70.12255
584.60,70.18427
584.80,70.22998
585.00,70.28294
585.20,70.33925
585.40,70.39441
585.60,70.43924
585.80,70.49765
586.00,70.54889
586.20,70.57893
586.40,70.62166
586.60,70.66965
586.80,70.69561
587.00,70.71826
587.20,70.74970
587.40,70.78005
587.60,70.80664
587.80,70.83476
588.00,70.86890
588.20,70.90254
588.40,70.92331
588.60,70.93841
588.80,70.96632
589.00,70.98669
589.20,70.99606
589.40,71.00618
589.60,71.01781
589.80,71.01637
590.00,71.02013
590.20,71.02200
590.40,71.01460
590.60,71.00796
590.80,71.00358
591.00,70.99486
591.20,70.99476
591.40,70.98380
591.60,70.96300
591.80,70.95146
592.00,70.92960
592.20,70.91378
592.40,70.89699
592.60,70.87915
592.80,70.86050
593.00,70.83086
593.20,70.79033
593.40,70.74980
593.60,70.72678
593.80,70.68571
594.00,70.64391
594.20,70.61234
594.40,70.58014
594.60,70.53798
594.80,70.49361
595.00,70.45907
595.20,70.41515
595.40,70.37022
595.60,70.31520
595.80,70.27751
596.00,70.22957
596.20,70.16816
596.40,70.12019
596.60,70.07092
596.80,70.00067
597.00,69.94499
597.20,69.88912
597.40,69.83605
597.60,69.77642
597.80,69.72684
598.00,69.67686
598.20,69.61787
598.40,69.55205
598.60,69.48619
598.80,69.42174
599.00,69.34078
599.20,69.27733
599.40,69.21190
599.60,69.15847
599.80,69.09937
600.00,69.04390
600.20,68.99229
600.40,68.93426
600.60,68.86352
600.80,68.80302
601.00,68.75060
601.20,68.68098
601.40,68.60962
601.60,68.56431
601.80,68.50329
602.00,68.44323
602.20,68.38930
602.40,68.34257
602.60,68.27376
602.80,68.21477
603.00,68.16121
603.20,68.10248
603.40,68.04537
603.60,67.99266
603.80,67.94680
604.00,67.90578
604.20,67.86471
604.40,67.81607
604.60,67.76865
604.80,67.71492
605.00,67.65711
605.20,67.61073
605.40,67.56982
605.60,67.53486
605.80,67.49591
606.00,67.45952
606.20,67.41355
606.40,67.37166
606.60,67.32740
606.80,67.29584
607.00,67.26199
607.20,67.23401
607.40,67.21151
607.60,67.19856
607.80,67.18147
608.00,67.15905
608.20,67.14720
608.40,67.13753
608.60,67.10823
608.80,67.07928
609.00,67.05289
609.20,67.02676
609.40,67.01190
609.60,67.00025
609.80,66.99409
610.00,67.00113
610.20,67.01312
610.40,66.99802
610.60,66.99180
610.80,66.98933
611.00,66.98154
611.20,66.96581
611.40,66.97053
611.60,66.97868
611.80,66.98128
612.00,66.98655
612.20,66.99678
612.40,67.00034
612.60,67.00972
612.80,67.02382
613.00,67.04047
613.20,67.05604
613.40,67.07642
613.60,67.09673
613.80,67.12534
614.00,67.14848
614.20,67.17491
614.40,67.20691
614.60,67.24154
614.80,67.27425
615.00,67.29908
615.20,67.32562
615.40,67.36350
615.60,67.39205
615.80,67.41608
616.00,67.46050
616.20,67.50613
616.40,67.54598
616.60,67.59953
616.80,67.64258
617.00,67.68297
617.20,67.72099
617.40,67.76064
617.60,67.78532
617.80,67.85899
618.00,67.91474
618.20,67.97911
618.40,68.02407
618.60,68.09131
618.80,68.13138
619.00,68.18267
619.20,68.23500
619.40,68.30671
619.60,68.36914
619.80,68.42644
620.00,68.48822
620.20,68.55605
620.40,68.61793
620.60,68.67549
620.80,68.74835
621.00,68.81373
621.20,68.85714
621.40,68.92559
621.60,68.98999
621.80,69.04644
622.00,69.10261
622.20,69.18032
622.40,69.24266
622.60,69.31014
622.80,69.36336
623.00,69.43529
623.20,69.50450
623.40,69.55755
623.60,69.61313
623.80,69.67331
624.00,69.72525
624.20,69.77487
624.40,69.82875
624.60,69.88432
624.80,69.95544
625.00,70.01039
625.20,70.06714
625.40,70.13661
625.60,70.20143
625.80,70.24654
626.00,70.30420
626.20,70.35601
626.40,70.40702
626.60,70.45316
626.80,70.50546
627.00,70.56471
627.20,70.62596
627.40,70.67202
627.60,70.71670
627.80,70.76599
628.00,70.80672
628.20,70.84600
628.40,70.89962
628.60,70.94904
628.80,70.99277
629.00,71.03565
629.20,71.06895
629.40,71.09279
629.60,71.13577
629.80,71.18461
630.00,71.21625
630.20,71.25389
630.40,71.29859
630.60,71.31616
630.80,71.31963
631.00,71.35156
631.20,71.37955
631.40,71.38358
631.60,71.41652
631.80,71.43400
632.00,71.45079
632.20,71.47486
632.40,71.51369
632.60,71.52122
632.80,71.55116
633.00,71.56721
633.20,71.56429
633.40,71.56007
633.60,71.56718
633.80,71.56748
634.00,71.57261
634.20,71.57476
634.40,71.58342
634.60,71.59580
634.80,71.59200
635.00,71.57966
635.20,71.57765
635.40,71.56433
635.60,71.54194
635.80,71.54636
636.00,71.54973
636.20,71.54213
636.40,71.52934
636.60,71.51884
636.80,71.49280
637.00,71.46737
637.20,71.42528
637.40,71.39407
637.60,71.36922
637.80,71.34999
638.00,71.32739
638.20,71.32322
638.40,71.29423
638.60,71.26982
638.80,71.21898
639.00,71.18204
639.20,71.14094
639.40,71.10963
639.60,71.07031
639.80,71.04747
640.00,71.00237
640.20,70.96269
640.40,70.92688
640.60,70.88280
640.80,70.83361
641.00,70.78932
641.20,70.74180
641.40,70.69773
641.60,70.66100
641.80,70.61417
642.00,70.58315
642.20,70.54173
642.40,70.49225
642.60,70.42827
642.80,70.37511
643.00,70.29677
643.20,70.25136
643.40,70.19894
643.60,70.15117
643.80,70.11080
644.00,70.08209
644.20,70.02705
644.40,69.97111
644.60,69.92214
644.80,69.85942
645.00,69.79583
645.20,69.73534
645.40,69.68056
645.60,69.62736
645.80,69.58373
646.00,69.54349
646.20,69.47429
646.40,69.44308
646.60,69.38681
646.80,69.34092
647.00,69.28099
647.20,69.26321
647.40,69.20120
647.60,69.15172
647.80,69.09096
648.00,69.03507
648.20,68.96776
648.40,68.91844
648.60,68.87940
648.80,68.82970
649.00,68.78626
649.20,68.75522
649.40,68.69915
649.60,68.64216
649.80,68.60728
650.00,68.55959
650.20,68.49968
650.40,68.47404
650.60,68.44474
650.80,68.40013
651.00,68.36587
651.20,68.33168
651.40,68.30013
651.60,68.26510
651.80,68.21778
652.00,68.18406
652.20,68.15340
652.40,68.10951
652.60,68.06436
652.80,68.06836
653.00,68.03772
653.20,68.00470
653.40,67.96690
653.60,67.95352
653.80,67.90475
654.00,67.88809
654.20,67.87938
654.40,67.86545
654.60,67.83705
654.80,67.83087
655.00,67.81189
655.20,67.79839
655.40,67.80626
655.60,67.79140
655.80,67.76572
656.00,67.75259
656.20,67.73990
656.40,67.72023
656.60,67.70793
656.80,67.71091
657.00,67.68712
657.20,67.67351
657.40,67.65178
657.60,67.66772
657.80,67.65935
658.00,67.67883
658.20,67.67655
658.40,67.70060
658.60,67.69722
658.80,67.69993
659.00,67.71370
659.20,67.73621
659.40,67.74170
659.60,67.75001
659.80,67.77693
660.00,67.79043
660.20,67.79783
660.40,67.80055
660.60,67.81823
660.80,67.82459
661.00,67.84444
661.20,67.88102
661.40,67.92232
661.60,67.96010
661.80,67.98810
662.00,68.01790
662.20,68.03862
662.40,68.05475
662.60,68.08632
662.80,68.11234
663.00,68.13585
663.20,68.17605
663.40,68.21904
663.60,68.24346
663.80,68.29570
664.00,68.33027
664.20,68.35600
664.40,68.40169
664.60,68.43884
664.80,68.47976
665.00,68.53474
665.20,68.58026
665.40,68.62411
665.60,68.68074
665.80,68.72431
666.00,68.77855
666.20,68.83292
666.40,68.87345
666.60,68.92645
666.80,68.97713
667.00,69.02532
667.20,69.07279
667.40,69.14457
667.60,69.18727
667.80,69.23715
668.00,69.28043
668.20,69.33423
668.40,69.36405
668.60,69.42872
668.80,69.49208
669.00,69.55872
669.20,69.61989
669.40,69.69085
669.60,69.74980
669.80,69.80910
670.00,69.86191
670.20,69.92223
670.40,69.98424
670.60,70.03710
670.80,70.10424
671.00,70.17021
671.20,70.22661
671.40,70.26885
671.60,70.32743
671.80,70.37060
672.00,70.42747
672.20,70.47274
672.40,70.52839
672.60,70.59334
672.80,70.65654
673.00,70.70732
673.20,70.77709
673.40,70.84680
673.60,70.90092
673.80,70.95295
674.00,71.01588
674.20,71.07809
674.40,71.14547
674.60,71.20137
674.80,71.28839
675.00,71.36307
675.20,71.42870
675.40,71.48430
675.60,71.54205
675.80,71.58825
676.00,71.63456
676.20,71.66339
676.40,71.72047
676.60,71.77203
676.80,71.81680
677.00,71.85829
677.20,71.93571
677.40,71.98533
677.60,72.05351
677.80,72.09979
678.00,72.14726
678.20,72.19424
678.40,72.24092
678.60,72.26865
678.80,72.32246
679.00,72.39012
679.20,72.44135
679.40,72.46895
679.60,72.52892
679.80,72.55232
680.00,72.59411
680.20,72.62278
680.40,72.68757
680.60,72.71200
680.80,72.76771
681.00,72.80174
681.20,72.84258
681.40,72.86486
681.60,72.91425
681.80,72.92694
682.00,72.95008
682.20,72.98504
682.40,73.02527
682.60,73.04633
682.80,73.10103
683.00,73.12731
683.20,73.16191
683.40,73.17165
683.60,73.20254
683.80,73.22398
684.00,73.23235
684.20,73.23108
684.40,73.25282
684.60,73.28007
684.80,73.29870
685.00,73.33911
685.20,73.36630
685.40,73.38262
685.60,73.39358
685.80,73.39350
686.00,73.40744
686.20,73.40651
686.40,73.41693
686.60,73.40443
686.80,73.42607
687.00,73.40816
687.20,73.42366
687.40,73.41097
687.60,73.39491
687.80,73.35779
688.00,73.35869
688.20,73.34054
688.40,73.34593
688.60,73.35875
688.80,73.35815
689.00,73.33596
689.20,73.33017
689.40,73.32271
689.60,73.31981
689.80,73.32063
690.00,73.30482
690.20,73.28380
690.40,73.26108
690.60,73.24429
690.80,73.22133
691.00,73.22734
691.20,73.20201
691.40,73.19072
691.60,73.15868
691.80,73.14745
692.00,73.11680
692.20,73.12781
692.40,73.09558
692.60,73.08764
692.80,73.03890
693.00,72.99574
693.20,72.93729
693.40,72.91014
693.60,72.86519
693.80,72.85548
694.00,72.82467
694.20,72.80064
694.40,72.79145
694.60,72.76245
694.80,72.75134
695.00,72.74654
695.20,72.74334
695.40,72.68534
695.60,72.64798
695.80,72.59350
696.00,72.54917
696.20,72.49140
696.40,72.46025
696.60,72.44312
696.80,72.41095
697.00,72.40189
697.20,72.35644
697.40,72.33559
697.60,72.30309
697.80,72.26857
698.00,72.22869
698.20,72.22069
698.40,72.19227
698.60,72.15194
698.80,72.12523
699.00,72.07909
699.20,72.04950
699.40,72.02913
699.60,72.00704
699.80,71.96684
700.00,71.93375
700.20,71.88424
700.40,71.84064
700.60,71.79762
700.80,71.77724
701.00,71.75241
701.20,71.73909
701.40,71.68654
701.60,71.64421
701.80,71.61381
702.00,71.58576
702.20,71.53497
702.40,71.51837
702.60,71.49416
702.80,71.46285
703.00,71.44511
703.20,71.42806
703.40,71.39816
703.60,71.39129
703.80,71.35219
704.00,71.30548
704.20,71.27516
704.40,71.23230
704.60,71.19672
704.80,71.17127
705.00,71.13770
705.20,71.12282
705.40,71.13348
705.60,71.09968
705.80,71.10391
706.00,71.11484
706.20,71.08843
706.40,71.03825
706.60,71.03626
706.80,71.00955
707.00,70.96081
707.20,70.95125
707.40,70.97346
707.60,70.96056
707.80,70.94007
708.00,70.94226
708.20,70.92919
708.40,70.90119
708.60,70.88817
708.80,70.87368
709.00,70.87689
709.20,70.85124
709.40,70.84770
709.60,70.85545
709.80,70.85645
710.00,70.83566
710.20,70.85866
710.40,70.85516
710.60,70.83531
710.80,70.83120
711.00,70.82528
711.20,70.82356
711.40,70.82703
711.60,70.84903
711.80,70.85683
712.00,70.88070
712.20,70.87044
712.40,70.87054
712.60,70.85618
712.80,70.85249
713.00,70.84451
713.20,70.84214
713.40,70.85939
713.60,70.88040
713.80,70.90904
714.00,70.93586
714.20,70.97503
714.40,70.97495
714.60,70.96982
714.80,70.98460
715.00,70.98464
715.20,70.99135
715.40,71.03765
715.60,71.08341
715.80,71.06345
716.00,71.06748
716.20,71.09563
716.40,71.08850
716.60,71.10369
716.80,71.16046
717.00,71.23464
717.20,71.24282
717.40,71.27356
717.60,71.28580
717.80,71.31950
718.00,71.32490
718.20,71.37810
718.40,71.39610
718.60,71.45023
718.80,71.49031
719.00,71.50100
719.20,71.51912
719.40,71.54030
719.60,71.55914
719.80,71.59547
720.00,71.63901
720.20,71.69235
720.40,71.75263
720.60,71.77236
720.80,71.78500
721.00,71.83304
721.20,71.87020
721.40,71.92739
721.60,71.98045
721.80,72.05077
722.00,72.08851
722.20,72.13091
722.40,72.15975
722.60,72.20697
722.80,72.24236
723.00,72.31010
723.20,72.36462
723.40,72.40642
723.60,72.45481
723.80,72.48041
724.00,72.50124
724.20,72.51971
724.40,72.54707
724.60,72.56279
724.80,72.59516
725.00,72.63873
725.20,72.67751
725.40,72.75273
725.60,72.82835
725.80,72.88649
726.00,72.97267
726.20,73.03069
726.40,73.07842
726.60,73.11690
726.80,73.19744
727.00,73.21075
727.20,73.26774
727.40,73.30492
727.60,73.36633
727.80,73.39391
728.00,73.47216
728.20,73.50911
728.40,73.58629
728.60,73.66142
728.80,73.74178
729.00,73.80139
729.20,73.86376
729.40,73.91638
729.60,73.94838
729.80,74.00177
730.00,74.02891
730.20,74.09788
730.40,74.14730
730.60,74.20474
730.80,74.24366
731.00,74.30479
731.20,74.33439
731.40,74.36223
731.60,74.39789
731.80,74.42049
732.00,74.46641
732.20,74.50597
732.40,74.56101
732.60,74.63505
732.80,74.71135
733.00,74.76235
733.20,74.82858
733.40,74.87507
733.60,74.91013
733.80,74.93973
734.00,74.97966
734.20,75.01624
734.40,75.09056
734.60,75.11125
734.80,75.16981
735.00,75.23041
735.20,75.27191
735.40,75.29387
735.60,75.33580
735.80,75.37150
736.00,75.41528
736.20,75.47746
736.40,75.52971
736.60,75.56393
736.80,75.60588
737.00,75.61656
737.20,75.64275
737.40,75.65953
737.60,75.68853
737.80,75.70886
738.00,75.74908
738.20,75.80122
738.40,75.84412
738.60,75.89616
738.80,75.95544
739.00,76.01575
739.20,76.07037
739.40,76.08206
739.60,76.12733
739.80,76.15041
740.00,76.16049
740.20,76.13270
740.40,76.16668
740.60,76.16572
740.80,76.19119
741.00,76.19530
741.20,76.23131
741.40,76.28576
741.60,76.31935
741.80,76.31413
742.00,76.37171
742.20,76.38550
742.40,76.36340
742.60,76.38798
742.80,76.39130
743.00,76.37057
743.20,76.39474
743.40,76.40147
743.60,76.37492
743.80,76.40753
744.00,76.42470
744.20,76.44174
744.40,76.44602
744.60,76.50124
744.80,76.49876
745.00,76.47539
745.20,76.45511
745.40,76.46141
745.60,76.45186
745.80,76.46260
746.00,76.48607
746.20,76.49273
746.40,76.54204
746.60,76.56435
746.80,76.55756
747.00,76.54034
747.20,76.52776
747.40,76.50408
747.60,76.49199
747.80,76.50342
748.00,76.49127
748.20,76.48460
748.40,76.50425
748.60,76.51316
748.80,76.54055
749.00,76.56571
749.20,76.58383
749.40,76.55213
749.60,76.51288
749.80,76.47426
750.00,76.47294
750.20,76.45692
750.40,76.43418
750.60,76.42839
750.80,76.41571
751.00,76.36092
751.20,76.34422
751.40,76.30128
751.60,76.26915
751.80,76.27350
752.00,76.29059
752.20,76.24307
752.40,76.20751
752.60,76.17915
752.80,76.11895
753.00,76.09324
753.20,76.08879
753.40,76.10214
753.60,76.09499
753.80,76.04571
754.00,76.01127
754.20,75.98400
754.40,75.94078
754.60,75.91371
754.80,75.89093
755.00,75.85116
755.20,75.82784
755.40,75.79305
755.60,75.73223
755.80,75.71975
756.00,75.69045
756.20,75.64126
756.40,75.66353
756.60,75.66780
756.80,75.62796
757.00,75.58784
757.20,75.56884
757.40,75.49319
757.60,75.46558
757.80,75.46744
758.00,75.47186
758.20,75.40828
758.40,75.36539
758.60,75.34574
758.80,75.30188
759.00,75.22923
759.20,75.21248
759.40,75.21697
759.60,75.15614
759.80,75.07434
760.00,75.02413
760.20,74.97166
760.40,74.90883
760.60,74.85603
760.80,74.85085
761.00,74.81874
761.20,74.78055
761.40,74.77977
761.60,74.75509
761.80,74.70355
762.00,74.64052
762.20,74.61615
762.40,74.52467
762.60,74.44151
762.80,74.43550
763.00,74.44401
763.20,74.41016
763.40,74.36513
763.60,74.34191
763.80,74.30264
764.00,74.23840
764.20,74.18672
764.40,74.16984
764.60,74.18061
764.80,74.08569
765.00,74.06685
765.20,74.02946
765.40,73.99687
765.60,73.90743
765.80,73.89354
766.00,73.84824
766.20,73.81859
766.40,73.75389
766.60,73.74554
766.80,73.69255
767.00,73.66339
767.20,73.61091
767.40,73.56964
767.60,73.52020
767.80,73.52283
768.00,73.48650
768.20,73.45497
768.40,73.44358
768.60,73.39840
768.80,73.34056
769.00,73.31657
769.20,73.27683
769.40,73.27955
769.60,73.23732
769.80,73.22090
770.00,73.17407
770.20,73.14616
770.40,73.08859
770.60,73.11494
770.80,73.09565
771.00,73.09807
771.20,73.10593
771.40,73.09883
771.60,73.02733
771.80,72.98764
772.00,72.97502
772.20,72.93817
772.40,72.88633
772.60,72.86172
772.80,72.84611
773.00,72.82435
773.20,72.81546
773.40,72.82380
773.60,72.81615
773.80,72.80800
774.00,72.78022
774.20,72.73985
774.40,72.71513
774.60,72.69194
774.80,72.68636
775.00,72.67281
775.20,72.65217
775.40,72.60481
775.60,72.63724
775.80,72.62882
776.00,72.60914
776.20,72.60181
776.40,72.66045
776.60,72.58800
776.80,72.55129
777.00,72.54136
777.20,72.52135
777.40,72.49927
777.60,72.52266
777.80,72.49196
778.00,72.44233
778.20,72.42690
778.40,72.37518
778.60,72.36645
778.80,72.38589
779.00,72.43881
779.20,72.50160
779.40,72.53522
779.60,72.54448
779.80,72.52834
780.00,72.54007
780.20,72.54226
780.40,72.52415
780.60,72.55349
780.80,72.59633
781.00,72.55165
781.20,72.52339
781.40,72.49715
781.60,72.48039
781.80,72.45623
782.00,72.48280
782.20,72.49886
782.40,72.55752
782.60,72.57889
782.80,72.56145
783.00,72.59505
783.20,72.62619
783.40,72.64193
783.60,72.63773
783.80,72.70547
784.00,72.69787
784.20,72.67053
784.40,72.67243
784.60,72.67732
784.80,72.68919
785.00,72.73109
785.20,72.75186
785.40,72.73592
785.60,72.77786
785.80,72.76066
786.00,72.72827
786.20,72.72249
786.40,72.82037
786.60,72.81349
786.80,72.85841
787.00,72.91333
787.20,73.00236
787.40,72.96856
787.60,73.06197
787.80,73.05369
788.00,73.09229
788.20,73.10364
788.40,73.12799
788.60,73.08323
788.80,73.13132
789.00,73.13454
789.20,73.17389
789.40,73.18353
789.60,73.21145
789.80,73.22981
790.00,73.26244
790.20,73.27629
790.40,73.37211
790.60,73.39997
790.80,73.46173
791.00,73.46873
791.20,73.48402
791.40,73.42903
791.60,73.51625
791.80,73.51649
792.00,73.56875
792.20,73.61154
792.40,73.66077
792.60,73.67415
792.80,73.71910
793.00,73.73039
793.20,73.78886
793.40,73.81914
793.60,73.85831
793.80,73.89897
794.00,73.98436
794.20,73.99906
794.40,74.02147
794.60,74.07873
794.80,74.13444
795.00,74.15017
795.20,74.22870
795.40,74.31880
795.60,74.30958
795.80,74.33814
796.00,74.38979
796.20,74.41502
796.40,74.39744
796.60,74.43303
796.80,74.44069
797.00,74.42769
797.20,74.46107
797.40,74.55524
797.60,74.60419
797.80,74.67855
798.00,74.71184
798.20,74.73289
798.40,74.74608
798.60,74.80406
798.80,74.81997
799.00,74.90357
799.20,74.92273
799.40,74.97784
799.60,74.99724
799.80,75.03468
800.00,75.04894
