"SamplMN1534MediumHighRes - RawData"
"Wavelength nm.","T%"
200.00,0.52173
200.20,0.43975
200.40,0.40769
200.60,0.33646
200.80,0.34297
201.00,0.33330
201.20,0.33709
201.40,0.31641
201.60,0.35097
201.80,0.35642
202.00,0.38344
202.20,0.41779
202.40,0.42863
202.60,0.40804
202.80,0.41109
203.00,0.37428
203.20,0.36244
203.40,0.34013
203.60,0.33366
203.80,0.31322
204.00,0.32469
204.20,0.31395
204.40,0.31688
204.60,0.33396
204.80,0.35566
205.00,0.36890
205.20,0.38596
205.40,0.39073
205.60,0.37421
205.80,0.35618
206.00,0.35312
206.20,0.34034
206.40,0.32443
206.60,0.33382
206.80,0.34046
207.00,0.31795
207.20,0.30568
207.40,0.31795
207.60,0.30231
207.80,0.28668
208.00,0.29142
208.20,0.30833
208.40,0.30527
208.60,0.29701
208.80,0.29402
209.00,0.29486
209.20,0.28573
209.40,0.28020
209.60,0.28297
209.80,0.28092
210.00,0.27275
210.20,0.27494
210.40,0.27573
210.60,0.27561
210.80,0.27891
211.00,0.26860
211.20,0.25782
211.40,0.25296
211.60,0.23728
211.80,0.25129
212.00,0.26176
212.20,0.25445
212.40,0.25932
212.60,0.27885
212.80,0.25183
213.00,0.24201
213.20,0.24685
213.40,0.23479
213.60,0.22621
213.80,0.23395
214.00,0.24051
214.20,0.23778
214.40,0.23919
214.60,0.24816
214.80,0.24245
215.00,0.24709
215.20,0.24882
215.40,0.24957
215.60,0.24738
215.80,0.25214
216.00,0.24141
216.20,0.25175
216.40,0.25112
216.60,0.24940
216.80,0.25860
217.00,0.26885
217.20,0.27213
217.40,0.27574
217.60,0.26931
217.80,0.25300
218.00,0.25619
218.20,0.25005
218.40,0.24437
218.60,0.24800
218.80,0.24665
219.00,0.23915
219.20,0.23160
219.40,0.23898
219.60,0.24218
219.80,0.24338
220.00,0.23540
220.20,0.23176
220.40,0.22374
220.60,0.22398
220.80,0.23475
221.00,0.23940
221.20,0.23829
221.40,0.24023
221.60,0.24258
221.80,0.24786
222.00,0.25417
222.20,0.25265
222.40,0.25317
222.60,0.25134
222.80,0.23814
223.00,0.23630
223.20,0.25267
223.40,0.25713
223.60,0.25060
223.80,0.25870
224.00,0.26111
224.20,0.25053
224.40,0.24700
224.60,0.25096
224.80,0.24913
225.00,0.24860
225.20,0.24497
225.40,0.24540
225.60,0.24660
225.80,0.23841
226.00,0.23714
226.20,0.24406
226.40,0.24334
226.60,0.24875
226.80,0.26462
227.00,0.26617
227.20,0.26682
227.40,0.26830
227.60,0.25920
227.80,0.24609
228.00,0.24934
228.20,0.24477
228.40,0.24801
228.60,0.25121
228.80,0.26076
229.00,0.25251
229.20,0.25404
229.40,0.26336
229.60,0.26405
229.80,0.27064
230.00,0.27314
230.20,0.27963
230.40,0.26927
230.60,0.26504
230.80,0.26170
231.00,0.26378
231.20,0.26645
231.40,0.27114
231.60,0.28872
231.80,0.28916
232.00,0.29447
232.20,0.30160
232.40,0.31373
232.60,0.31544
232.80,0.32646
233.00,0.35294
233.20,0.37269
233.40,0.40446
233.60,0.44986
233.80,0.50799
234.00,0.56725
234.20,0.64996
234.40,0.72755
234.60,0.82603
234.80,0.93051
235.00,1.07792
235.20,1.23461
235.40,1.41015
235.60,1.65027
235.80,1.92184
236.00,2.21038
236.20,2.52230
236.40,2.90745
236.60,3.29900
236.80,3.76136
237.00,4.26134
237.20,4.84088
237.40,5.44181
237.60,6.08344
237.80,6.78983
238.00,7.55170
238.20,8.34994
238.40,9.25701
238.60,10.23031
238.80,11.26192
239.00,12.24410
239.20,13.36294
239.40,14.41896
239.60,15.53783
239.80,16.60745
240.00,17.87820
240.20,19.05547
240.40,20.38649
240.60,21.65903
240.80,23.00824
241.00,24.31220
241.20,25.67294
241.40,26.99043
241.60,28.29986
241.80,29.53996
242.00,30.78507
242.20,32.01461
242.40,33.22127
242.60,34.34808
242.80,35.56660
243.00,36.69378
243.20,37.73670
243.40,38.70039
243.60,39.73566
243.80,40.64323
244.00,41.47963
244.20,42.39021
244.40,43.18298
244.60,43.99638
244.80,44.71893
245.00,45.49533
245.20,46.12051
245.40,46.74553
245.60,47.33491
245.80,47.85281
246.00,48.33068
246.20,48.76752
246.40,49.21197
246.60,49.59095
246.80,50.02937
247.00,50.45991
247.20,50.77408
247.40,51.11857
247.60,51.36012
247.80,51.60501
248.00,51.85705
248.20,52.23515
248.40,52.57235
248.60,52.93514
248.80,53.23642
249.00,53.44399
249.20,53.64456
249.40,53.86112
249.60,54.06334
249.80,54.26043
250.00,54.44258
250.20,54.58413
250.40,54.66664
250.60,54.78930
250.80,54.96764
251.00,55.14640
251.20,55.38008
251.40,55.53123
251.60,55.67676
251.80,55.75016
252.00,55.87685
252.20,55.94760
252.40,56.08856
252.60,56.16937
252.80,56.22933
253.00,56.23432
253.20,56.33916
253.40,56.41043
253.60,56.60828
253.80,56.78920
254.00,57.03469
254.20,57.06507
254.40,57.15809
254.60,57.21236
254.80,57.32966
255.00,57.36545
255.20,57.58352
255.40,57.75827
255.60,57.80802
255.80,57.90188
256.00,58.01207
256.20,58.02070
256.40,58.11464
256.60,58.21753
256.80,58.34188
257.00,58.40666
257.20,58.49883
257.40,58.57203
257.60,58.61436
257.80,58.60315
258.00,58.68620
258.20,58.73140
258.40,58.76278
258.60,58.79072
258.80,58.80326
259.00,58.86230
259.20,58.89494
259.40,58.90855
259.60,59.05800
259.80,59.28410
260.00,59.35118
260.20,59.43475
260.40,59.50251
260.60,59.49633
260.80,59.53699
261.00,59.56872
261.20,59.65438
261.40,59.75248
261.60,59.89916
261.80,59.95424
262.00,60.04955
262.20,60.16570
262.40,60.24655
262.60,60.19812
262.80,60.19456
263.00,60.20706
263.20,60.23034
263.40,60.18608
263.60,60.25639
263.80,60.30760
264.00,60.33240
264.20,60.31712
264.40,60.40199
264.60,60.46188
264.80,60.46857
265.00,60.53058
265.20,60.58630
265.40,60.65509
265.60,60.67453
265.80,60.65223
266.00,60.72035
266.20,60.71042
266.40,60.80344
266.60,60.86894
266.80,60.88790
267.00,60.87083
267.20,60.90380
267.40,60.85173
267.60,60.87347
267.80,60.96211
268.00,61.00504
268.20,61.11555
268.40,61.14552
268.60,61.22044
268.80,61.24693
269.00,61.19790
269.20,61.17927
269.40,61.20842
269.60,61.19301
269.80,61.28986
270.00,61.39587
270.20,61.44152
270.40,61.43689
270.60,61.39755
270.80,61.32972
271.00,61.39539
271.20,61.35094
271.40,61.33921
271.60,61.44944
271.80,61.56762
272.00,61.48067
272.20,61.55375
272.40,61.62640
272.60,61.62409
272.80,61.61084
273.00,61.67975
273.20,61.64120
273.40,61.61535
273.60,61.71120
273.80,61.81406
274.00,61.79365
274.20,61.82509
274.40,61.83764
274.60,61.83927
274.80,61.72095
275.00,61.80406
275.20,61.93963
275.40,62.05453
275.60,61.94387
275.80,62.03579
276.00,62.08513
276.20,62.03637
276.40,62.01225
276.60,62.05039
276.80,62.01653
277.00,62.01069
277.20,62.07428
277.40,62.08602
277.60,62.17253
277.80,62.08935
278.00,62.07570
278.20,62.04830
278.40,62.14381
278.60,62.09332
278.80,62.13480
279.00,62.14731
279.20,62.19436
279.40,62.16265
279.60,62.23905
279.80,62.35955
280.00,62.47117
280.20,62.52607
280.40,62.48825
280.60,62.45565
280.80,62.39176
281.00,62.29698
281.20,62.25716
281.40,62.37127
281.60,62.42959
281.80,62.51354
282.00,62.56235
282.20,62.60798
282.40,62.56582
282.60,62.65221
282.80,62.76152
283.00,62.78710
283.20,62.70097
283.40,62.74978
283.60,62.71313
283.80,62.61284
284.00,62.58792
284.20,62.69444
284.40,62.75204
284.60,62.76413
284.80,62.81915
285.00,62.89533
285.20,62.83236
285.40,62.81074
285.60,62.84115
285.80,62.85676
286.00,62.85942
286.20,63.00112
286.40,63.02578
286.60,63.01525
286.80,63.06480
287.00,63.11824
287.20,63.03214
287.40,62.99779
287.60,63.02768
287.80,63.08553
288.00,63.04961
288.20,63.10357
288.40,63.26339
288.60,63.27906
288.80,63.18803
289.00,63.21788
289.20,63.31518
289.40,63.37894
289.60,63.42809
289.80,63.54796
290.00,63.62974
290.20,63.58935
290.40,63.45301
290.60,63.53955
290.80,63.48931
291.00,63.54764
291.20,63.58933
291.40,63.68732
291.60,63.69398
291.80,63.80999
292.00,63.75048
292.20,63.74116
292.40,63.65696
292.60,63.61723
292.80,63.64480
293.00,63.72098
293.20,63.82647
293.40,63.95850
293.60,63.99982
293.80,63.88794
294.00,63.91438
294.20,63.87449
294.40,63.89226
294.60,63.89936
294.80,63.96681
295.00,63.89473
295.20,64.01403
295.40,64.02790
295.60,63.99382
295.80,64.08143
296.00,64.16498
296.20,64.13472
296.40,64.13162
296.60,64.22645
296.80,64.16466
297.00,64.17637
297.20,64.18374
297.40,64.13850
297.60,64.17537
297.80,64.24193
298.00,64.27724
298.20,64.30448
298.40,64.33035
298.60,64.29399
298.80,64.32203
299.00,64.20721
299.20,64.24259
299.40,64.30498
299.60,64.35057
299.80,64.31093
300.00,64.46965
300.20,64.43212
300.40,64.49838
300.60,64.55833
300.80,64.65107
301.00,64.56634
301.20,64.53323
301.40,64.52011
301.60,64.44011
301.80,64.37144
302.00,64.45221
302.20,64.50794
302.40,64.48982
302.60,64.47052
302.80,64.55263
303.00,64.48169
303.20,64.39584
303.40,64.42708
303.60,64.48247
303.80,64.44035
304.00,64.55457
304.20,64.70749
304.40,64.72691
304.60,64.78310
304.80,64.86720
305.00,64.80775
305.20,64.80389
305.40,64.79092
305.60,64.70961
305.80,64.72583
306.00,64.77096
306.20,64.75160
306.40,64.70553
306.60,64.90963
306.80,64.91081
307.00,64.91178
307.20,64.93822
307.40,65.03925
307.60,64.88642
307.80,64.84705
308.00,64.87114
308.20,64.87688
308.40,64.74907
308.60,64.89444
308.80,64.92288
309.00,64.88631
309.20,64.93611
309.40,65.11345
309.60,65.01704
309.80,64.98866
310.00,65.07874
310.20,65.01887
310.40,64.99360
310.60,65.00375
310.80,65.10271
311.00,65.11648
311.20,65.11489
311.40,65.02583
311.60,65.08006
311.80,65.03384
312.00,65.01198
312.20,65.12977
312.40,65.17107
312.60,65.15780
312.80,65.21326
313.00,65.20133
313.20,65.18030
313.40,65.29126
313.60,65.30391
313.80,65.17552
314.00,65.24094
314.20,65.16457
314.40,65.07599
314.60,65.08446
314.80,65.10729
315.00,65.10399
315.20,65.14809
315.40,65.13732
315.60,65.14953
315.80,65.21974
316.00,65.22475
316.20,65.23250
316.40,65.23613
316.60,65.20546
316.80,65.21527
317.00,65.23328
317.20,65.30678
317.40,65.38717
317.60,65.41647
317.80,65.44433
318.00,65.46702
318.20,65.36843
318.40,65.33953
318.60,65.33859
318.80,65.23302
319.00,65.21835
319.20,65.25669
319.40,65.25874
319.60,65.27342
319.80,65.35630
320.00,65.38503
320.20,65.45953
320.40,65.62450
320.60,65.65568
320.80,65.68612
321.00,65.65908
321.20,65.60216
321.40,65.46474
321.60,65.54789
321.80,65.54372
322.00,65.61265
322.20,65.65078
322.40,65.67168
322.60,65.63050
322.80,65.63630
323.00,65.63438
323.20,65.53826
323.40,65.57957
323.60,65.48725
323.80,65.49088
324.00,65.53146
324.20,65.58631
324.40,65.49889
324.60,65.53331
324.80,65.51276
325.00,65.39945
325.20,65.35039
325.40,65.41710
325.60,65.44938
325.80,65.56880
326.00,65.59178
326.20,65.66229
326.40,65.64385
326.60,65.66984
326.80,65.53911
327.00,65.60050
327.20,65.64121
327.40,65.59369
327.60,65.45135
327.80,65.44919
328.00,65.43434
328.20,65.44417
328.40,65.42004
328.60,65.56389
328.80,65.65202
329.00,65.62454
329.20,65.63625
329.40,65.73665
329.60,65.67751
329.80,65.63088
330.00,65.66319
330.20,65.61260
330.40,65.68514
330.60,65.85633
330.80,65.92048
331.00,65.94682
331.20,66.03025
331.40,65.97301
331.60,65.91436
331.80,65.94840
332.00,66.03969
332.20,66.02962
332.40,66.10138
332.60,66.11001
332.80,66.07720
333.00,65.97638
333.20,66.05797
333.40,65.98486
333.60,65.98923
333.80,65.99646
334.00,66.02111
334.20,65.96243
334.40,66.02492
334.60,66.04001
334.80,66.08736
335.00,66.07281
335.20,66.06075
335.40,66.12380
335.60,66.02912
335.80,65.97151
336.00,65.95317
336.20,65.94958
336.40,65.83661
336.60,65.86360
336.80,65.88375
337.00,65.93220
337.20,65.94216
337.40,65.91203
337.60,65.87148
337.80,65.91856
338.00,65.90778
338.20,65.88029
338.40,65.93484
338.60,66.03589
338.80,65.98848
339.00,65.97838
339.20,65.92605
339.40,65.88582
339.60,65.88234
339.80,65.91449
340.00,65.92870
340.20,66.01418
340.40,66.06845
340.60,66.10287
340.80,66.11214
341.00,66.13480
341.20,66.19618
341.40,66.22819
341.60,66.22494
341.80,66.23939
342.00,66.23506
342.20,66.29486
342.40,66.31677
342.60,66.26512
342.80,66.23515
343.00,66.24434
343.20,66.18311
343.40,66.14311
343.60,66.26348
343.80,66.28789
344.00,66.32215
344.20,66.34917
344.40,66.42682
344.60,66.42208
344.80,66.53979
345.00,66.57933
345.20,66.58437
345.40,66.64222
345.60,66.60022
345.80,66.63281
346.00,66.58193
346.20,66.60346
346.40,66.52653
346.60,66.59747
346.80,66.51707
347.00,66.49890
347.20,66.46152
347.40,66.44835
347.60,66.41564
347.80,66.42006
348.00,66.44470
348.20,66.55300
348.40,66.57917
348.60,66.52895
348.80,66.45056
349.00,66.47799
349.20,66.31461
349.40,66.28943
349.60,66.33829
349.80,66.39042
350.00,66.36170
350.20,66.36330
350.40,66.32030
350.60,66.25371
350.80,66.20707
351.00,66.26843
351.20,66.32999
351.40,66.40412
351.60,66.45409
351.80,66.52718
352.00,66.48891
352.20,66.42597
352.40,66.42592
352.60,66.45142
352.80,66.40519
353.00,66.38137
353.20,66.48785
353.40,66.53988
353.60,66.55599
353.80,66.60538
354.00,66.63837
354.20,66.66856
354.40,66.69861
354.60,66.69396
354.80,66.72747
355.00,66.81108
355.20,66.77805
355.40,66.76819
355.60,66.81516
355.80,66.82522
356.00,66.71229
356.20,66.72780
356.40,66.76629
356.60,66.79894
356.80,66.82521
357.00,66.86403
357.20,66.88969
357.40,66.82491
357.60,66.72848
357.80,66.65532
358.00,66.68761
358.20,66.70170
358.40,66.75793
358.60,66.83617
358.80,66.92424
359.00,66.87982
359.20,66.90735
359.40,66.88353
359.60,66.87328
359.80,66.78171
360.00,66.83086
360.20,66.74745
360.40,66.72068
360.60,66.70668
360.80,66.75569
361.00,66.81642
361.20,66.90218
361.40,66.86278
361.60,66.86153
361.80,66.79733
362.00,66.70299
362.20,66.63156
362.40,66.62598
362.60,66.62837
362.80,66.67246
363.00,66.70511
363.20,66.69810
363.40,66.73967
363.60,66.71342
363.80,66.72657
364.00,66.71559
364.20,66.74938
364.40,66.71957
364.60,66.70036
364.80,66.64748
365.00,66.63916
365.20,66.56793
365.40,66.60128
365.60,66.58009
365.80,66.61859
366.00,66.61091
366.20,66.68445
366.40,66.66955
366.60,66.69134
366.80,66.69393
367.00,66.72116
367.20,66.65505
367.40,66.65666
367.60,66.64756
367.80,66.63742
368.00,66.65475
368.20,66.72819
368.40,66.81221
368.60,66.79327
368.80,66.80022
369.00,66.74118
369.20,66.70915
369.40,66.63107
369.60,66.77353
369.80,66.80942
370.00,66.88328
370.20,66.90950
370.40,66.97924
370.60,66.93879
370.80,66.98451
371.00,67.04854
371.20,67.10817
371.40,67.07423
371.60,67.06712
371.80,67.09955
372.00,67.08046
372.20,67.10640
372.40,67.14231
372.60,67.17341
372.80,67.17244
373.00,67.18338
373.20,67.18822
373.40,67.20458
373.60,67.17302
373.80,67.18277
374.00,67.14275
374.20,67.07575
374.40,67.06100
374.60,67.07802
374.80,66.97325
375.00,66.99598
375.20,66.99753
375.40,67.02030
375.60,67.03528
375.80,67.08658
376.00,67.08650
376.20,67.11422
376.40,67.05641
376.60,66.96443
376.80,66.96047
377.00,66.96258
377.20,66.85805
377.40,66.88202
377.60,66.93875
377.80,66.88533
378.00,66.85921
378.20,66.89388
378.40,66.92049
378.60,66.95603
378.80,66.98130
379.00,66.97714
379.20,67.02317
379.40,67.01876
379.60,66.95891
379.80,66.96788
380.00,66.93846
380.20,66.92987
380.40,66.90786
380.60,66.95140
380.80,66.89979
381.00,66.90369
381.20,66.90149
381.40,66.84635
381.60,66.81691
381.80,66.90140
382.00,66.96167
382.20,66.97519
382.40,67.03394
382.60,67.07350
382.80,67.09425
383.00,67.08148
383.20,67.08579
383.40,67.08305
383.60,67.13699
383.80,67.10309
384.00,67.14958
384.20,67.20417
384.40,67.28956
384.60,67.25524
384.80,67.32494
385.00,67.31372
385.20,67.32876
385.40,67.32256
385.60,67.33263
385.80,67.28570
386.00,67.28095
386.20,67.28535
386.40,67.25993
386.60,67.32441
386.80,67.37644
387.00,67.39243
387.20,67.38952
387.40,67.43898
387.60,67.43110
387.80,67.46210
388.00,67.46938
388.20,67.48682
388.40,67.47829
388.60,67.45601
388.80,67.47434
389.00,67.48573
389.20,67.45307
389.40,67.48666
389.60,67.48007
389.80,67.40898
390.00,67.41309
390.20,67.43538
390.40,67.35938
390.60,67.34663
390.80,67.39379
391.00,67.35899
391.20,67.33984
391.40,67.38246
391.60,67.39590
391.80,67.36450
392.00,67.43489
392.20,67.41620
392.40,67.37015
392.60,67.35731
392.80,67.36990
393.00,67.30734
393.20,67.33296
393.40,67.33586
393.60,67.29354
393.80,67.28390
394.00,67.31856
394.20,67.31368
394.40,67.30778
394.60,67.34020
394.80,67.31251
395.00,67.27753
395.20,67.24031
395.40,67.24751
395.60,67.26072
395.80,67.25314
396.00,67.25123
396.20,67.25183
396.40,67.24269
396.60,67.18739
396.80,67.18691
397.00,67.20540
397.20,67.22532
397.40,67.24606
397.60,67.29492
397.80,67.37015
398.00,67.35853
398.20,67.37000
398.40,67.35129
398.60,67.41017
398.80,67.33955
399.00,67.42176
399.20,67.41191
399.40,67.43279
399.60,67.37803
399.80,67.37621
400.00,67.32665
400.20,67.36648
400.40,67.37508
400.60,67.42342
400.80,67.48761
401.00,67.50680
401.20,67.52812
401.40,67.56189
401.60,67.56954
401.80,67.57639
402.00,67.57149
402.20,67.59538
402.40,67.60537
402.60,67.63731
402.80,67.68373
403.00,67.71895
403.20,67.69826
403.40,67.73175
403.60,67.75157
403.80,67.75301
404.00,67.75249
404.20,67.76243
404.40,67.75480
404.60,67.70893
404.80,67.71981
405.00,67.73524
405.20,67.79494
405.40,67.79494
405.60,67.83612
405.80,67.81971
406.00,67.83163
406.20,67.80827
406.40,67.84734
406.60,67.83431
406.80,67.86366
407.00,67.86014
407.20,67.83774
407.40,67.80527
407.60,67.84142
407.80,67.80047
408.00,67.82682
408.20,67.86137
408.40,67.87325
408.60,67.84321
408.80,67.86767
409.00,67.79816
409.20,67.78703
409.40,67.77778
409.60,67.79608
409.80,67.75786
410.00,67.74735
410.20,67.69584
410.40,67.67964
410.60,67.63095
410.80,67.65154
411.00,67.67322
411.20,67.65470
411.40,67.62264
411.60,67.60702
411.80,67.57723
412.00,67.58773
412.20,67.60144
412.40,67.61307
412.60,67.61374
412.80,67.63025
413.00,67.62154
413.20,67.61377
413.40,67.59709
413.60,67.57587
413.80,67.54649
414.00,67.50360
414.20,67.50352
414.40,67.50545
414.60,67.51547
414.80,67.52728
415.00,67.52000
415.20,67.54726
415.40,67.54678
415.60,67.55873
415.80,67.59157
416.00,67.65068
416.20,67.63998
416.40,67.64771
416.60,67.67974
416.80,67.64761
417.00,67.64328
417.20,67.65558
417.40,67.68277
417.60,67.69074
417.80,67.71446
418.00,67.74173
418.20,67.72404
418.40,67.70931
418.60,67.69430
418.80,67.72810
419.00,67.70730
419.20,67.75472
419.40,67.79407
419.60,67.82452
419.80,67.80314
420.00,67.84763
420.20,67.86907
420.40,67.84499
420.60,67.85790
420.80,67.90372
421.00,67.91798
421.20,67.92799
421.40,67.99284
421.60,67.98126
421.80,67.98411
422.00,67.99061
422.20,68.02537
422.40,68.02401
422.60,68.03439
422.80,68.05211
423.00,68.06306
423.20,68.04638
423.40,68.06911
423.60,68.11830
423.80,68.13532
424.00,68.14114
424.20,68.15951
424.40,68.17151
424.60,68.17288
424.80,68.18308
425.00,68.19094
425.20,68.18227
425.40,68.16185
425.60,68.13556
425.80,68.11587
426.00,68.11393
426.20,68.13292
426.40,68.11965
426.60,68.14047
426.80,68.14700
427.00,68.11858
427.20,68.12164
427.40,68.15206
427.60,68.17211
427.80,68.15221
428.00,68.15058
428.20,68.14079
428.40,68.08808
428.60,68.05776
428.80,68.07930
429.00,68.11486
429.20,68.08667
429.40,68.14119
429.60,68.12329
429.80,68.09678
430.00,68.05559
430.20,68.04671
430.40,68.00728
430.60,68.01429
430.80,68.02550
431.00,68.06185
431.20,68.03739
431.40,68.02782
431.60,68.02750
431.80,67.99809
432.00,67.93796
432.20,67.91970
432.40,67.91554
432.60,67.88857
432.80,67.86082
433.00,67.88859
433.20,67.88390
433.40,67.86613
433.60,67.85924
433.80,67.86731
434.00,67.86279
434.20,67.89827
434.40,67.89031
434.60,67.87742
434.80,67.90901
435.00,67.87286
435.20,67.87199
435.40,67.88696
435.60,67.91844
435.80,67.86801
436.00,67.88740
436.20,67.89095
436.40,67.88368
436.60,67.88335
436.80,67.89212
437.00,67.88229
437.20,67.89505
437.40,67.93611
437.60,67.92085
437.80,67.93777
438.00,67.94487
438.20,67.93985
438.40,67.89962
438.60,67.93205
438.80,67.97172
439.00,68.00847
439.20,68.02290
439.40,68.07275
439.60,68.07684
439.80,68.08134
440.00,68.09798
440.20,68.09492
440.40,68.12453
440.60,68.15199
440.80,68.17213
441.00,68.15704
441.20,68.19866
441.40,68.23875
441.60,68.27223
441.80,68.28587
442.00,68.31889
442.20,68.33444
442.40,68.32472
442.60,68.32584
442.80,68.34379
443.00,68.36644
443.20,68.37689
443.40,68.39117
443.60,68.39048
443.80,68.40850
444.00,68.41120
444.20,68.44130
444.40,68.43300
444.60,68.44360
444.80,68.46786
445.00,68.50019
445.20,68.48472
445.40,68.47491
445.60,68.49232
445.80,68.47867
446.00,68.50287
446.20,68.51863
446.40,68.57386
446.60,68.58577
446.80,68.59769
447.00,68.56224
447.20,68.59542
447.40,68.59874
447.60,68.61750
447.80,68.62364
448.00,68.63157
448.20,68.59379
448.40,68.58034
448.60,68.56616
448.80,68.52831
449.00,68.55443
449.20,68.55541
449.40,68.54435
449.60,68.52888
449.80,68.53761
450.00,68.51869
450.20,68.51010
450.40,68.49889
450.60,68.47569
450.80,68.48555
451.00,68.47544
451.20,68.47219
451.40,68.44326
451.60,68.44972
451.80,68.40437
452.00,68.38804
452.20,68.37933
452.40,68.35684
452.60,68.37009
452.80,68.37147
453.00,68.33786
453.20,68.30385
453.40,68.31385
453.60,68.28060
453.80,68.27464
454.00,68.26118
454.20,68.26444
454.40,68.27617
454.60,68.24210
454.80,68.24759
455.00,68.26801
455.20,68.24746
455.40,68.23695
455.60,68.24648
455.80,68.24166
456.00,68.23815
456.20,68.22482
456.40,68.21188
456.60,68.19100
456.80,68.15150
457.00,68.14840
457.20,68.17430
457.40,68.18537
457.60,68.15993
457.80,68.20262
458.00,68.15842
458.20,68.11066
458.40,68.08453
458.60,68.14559
458.80,68.12530
459.00,68.14513
459.20,68.17348
459.40,68.20633
459.60,68.19559
459.80,68.20483
460.00,68.21959
460.20,68.21785
460.40,68.18379
460.60,68.19032
460.80,68.20440
461.00,68.19572
461.20,68.23046
461.40,68.24296
461.60,68.25047
461.80,68.27322
462.00,68.29060
462.20,68.28014
462.40,68.31023
462.60,68.34379
462.80,68.34483
463.00,68.34509
463.20,68.36476
463.40,68.37641
463.60,68.37258
463.80,68.41047
464.00,68.44876
464.20,68.47716
464.40,68.47081
464.60,68.49481
464.80,68.51042
465.00,68.52531
465.20,68.54652
465.40,68.57662
465.60,68.58049
465.80,68.57438
466.00,68.63428
466.20,68.65812
466.40,68.68690
466.60,68.69844
466.80,68.68742
467.00,68.68027
467.20,68.67673
467.40,68.69855
467.60,68.73795
467.80,68.76204
468.00,68.76500
468.20,68.82494
468.40,68.82582
468.60,68.83537
468.80,68.86430
469.00,68.85671
469.20,68.84817
469.40,68.85272
469.60,68.87540
469.80,68.91207
470.00,68.92837
470.20,68.94512
470.40,68.96409
470.60,68.94469
470.80,68.91400
471.00,68.92463
471.20,68.89812
471.40,68.92116
471.60,68.91862
471.80,68.93178
472.00,68.92141
472.20,68.94463
472.40,68.93538
472.60,68.93822
472.80,68.91713
473.00,68.95427
473.20,68.91060
473.40,68.88780
473.60,68.87881
473.80,68.86558
474.00,68.82706
474.20,68.85592
474.40,68.88229
474.60,68.87890
474.80,68.91651
475.00,68.91719
475.20,68.89080
475.40,68.84551
475.60,68.82460
475.80,68.79202
476.00,68.78951
476.20,68.78472
476.40,68.80265
476.60,68.81227
476.80,68.80210
477.00,68.75739
477.20,68.75717
477.40,68.72119
477.60,68.70183
477.80,68.69195
478.00,68.73119
478.20,68.69609
478.40,68.70036
478.60,68.68854
478.80,68.68676
479.00,68.65250
479.20,68.65929
479.40,68.62785
479.60,68.59234
479.80,68.55049
480.00,68.52337
480.20,68.49186
480.40,68.47779
480.60,68.49306
480.80,68.48924
481.00,68.48381
481.20,68.50442
481.40,68.49542
481.60,68.49341
481.80,68.49679
482.00,68.49017
482.20,68.47860
482.40,68.49450
482.60,68.48070
482.80,68.47113
483.00,68.47880
483.20,68.46441
483.40,68.45545
483.60,68.46079
483.80,68.44391
484.00,68.45009
484.20,68.46771
484.40,68.47630
484.60,68.47539
484.80,68.48730
485.00,68.47633
485.20,68.46896
485.40,68.44561
485.60,68.44711
485.80,68.44541
486.00,68.44779
486.20,68.44641
486.40,68.48091
486.60,68.50902
486.80,68.55313
487.00,68.56469
487.20,68.59572
487.40,68.61351
487.60,68.62108
487.80,68.63093
488.00,68.63084
488.20,68.62908
488.40,68.65031
488.60,68.65592
488.80,68.66267
489.00,68.69689
489.20,68.71258
489.40,68.72060
489.60,68.73163
489.80,68.76444
490.00,68.77949
490.20,68.77940
490.40,68.79161
490.60,68.80066
490.80,68.77545
491.00,68.80452
491.20,68.84253
491.40,68.85994
491.60,68.88121
491.80,68.93373
492.00,68.95958
492.20,68.97709
492.40,68.99294
492.60,69.01822
492.80,69.03725
493.00,69.03191
493.20,69.04128
493.40,69.07582
493.60,69.08324
493.80,69.08966
494.00,69.11970
494.20,69.14782
494.40,69.15807
494.60,69.18936
494.80,69.19284
495.00,69.20457
495.20,69.20435
495.40,69.17574
495.60,69.17466
495.80,69.20679
496.00,69.20585
496.20,69.19509
496.40,69.19984
496.60,69.20357
496.80,69.19060
497.00,69.19566
497.20,69.22978
497.40,69.26273
497.60,69.28602
497.80,69.28543
498.00,69.29131
498.20,69.28919
498.40,69.33531
498.60,69.35292
498.80,69.35651
499.00,69.37633
499.20,69.39844
499.40,69.34876
499.60,69.34947
499.80,69.38444
500.00,69.38684
500.20,69.35863
500.40,69.39335
500.60,69.36275
500.80,69.34521
501.00,69.34013
501.20,69.33787
501.40,69.32280
501.60,69.33910
501.80,69.32023
502.00,69.31040
502.20,69.31775
502.40,69.31419
502.60,69.29774
502.80,69.30141
503.00,69.27252
503.20,69.26945
503.40,69.23848
503.60,69.24366
503.80,69.21878
504.00,69.23186
504.20,69.20298
504.40,69.17930
504.60,69.13580
504.80,69.12010
505.00,69.10689
505.20,69.09633
505.40,69.09614
505.60,69.08605
505.80,69.07784
506.00,69.05553
506.20,69.03832
506.40,69.03540
506.60,69.05097
506.80,69.05156
507.00,69.02714
507.20,69.03623
507.40,69.01832
507.60,68.97182
507.80,68.99093
508.00,68.96383
508.20,68.92043
508.40,68.90823
508.60,68.89839
508.80,68.84603
509.00,68.88081
509.20,68.86913
509.40,68.85034
509.60,68.84889
509.80,68.84035
510.00,68.82054
510.20,68.81827
510.40,68.80959
510.60,68.79483
510.80,68.78693
511.00,68.79029
511.20,68.79097
511.40,68.80104
511.60,68.80702
511.80,68.81758
512.00,68.79629
512.20,68.79490
512.40,68.77191
512.60,68.74086
512.80,68.73583
513.00,68.75083
513.20,68.75226
513.40,68.77421
513.60,68.81133
513.80,68.80925
514.00,68.79252
514.20,68.81016
514.40,68.82123
514.60,68.79320
514.80,68.77873
515.00,68.78654
515.20,68.75668
515.40,68.76616
515.60,68.78600
515.80,68.79970
516.00,68.83166
516.20,68.88379
516.40,68.87238
516.60,68.87975
516.80,68.90572
517.00,68.89595
517.20,68.88489
517.40,68.90596
517.60,68.91785
517.80,68.92638
518.00,68.93984
518.20,68.97976
518.40,68.98712
518.60,69.01591
518.80,69.02344
519.00,69.04427
519.20,69.04221
519.40,69.03248
519.60,69.04389
519.80,69.06776
520.00,69.06072
520.20,69.09937
520.40,69.11845
520.60,69.14144
520.80,69.14912
521.00,69.16230
521.20,69.12462
521.40,69.18994
521.60,69.17714
521.80,69.20223
522.00,69.24288
522.20,69.28477
522.40,69.27550
522.60,69.31078
522.80,69.30161
523.00,69.31907
523.20,69.34122
523.40,69.35766
523.60,69.37744
523.80,69.40240
524.00,69.41881
524.20,69.41500
524.40,69.42908
524.60,69.46318
524.80,69.48050
525.00,69.48713
525.20,69.52965
525.40,69.54979
525.60,69.53343
525.80,69.56881
526.00,69.56573
526.20,69.56861
526.40,69.59334
526.60,69.65520
526.80,69.65346
527.00,69.67829
527.20,69.69448
527.40,69.70773
527.60,69.67068
527.80,69.66909
528.00,69.70844
528.20,69.71141
528.40,69.69835
528.60,69.70241
528.80,69.70448
529.00,69.69395
529.20,69.68836
529.40,69.68783
529.60,69.70201
529.80,69.70416
530.00,69.69584
530.20,69.69436
530.40,69.69797
530.60,69.69771
530.80,69.71880
531.00,69.71034
531.20,69.73712
531.40,69.75643
531.60,69.80697
531.80,69.82271
532.00,69.83194
532.20,69.80005
532.40,69.77017
532.60,69.71977
532.80,69.70154
533.00,69.71934
533.20,69.74858
533.40,69.77189
533.60,69.75121
533.80,69.70855
534.00,69.66155
534.20,69.63891
534.40,69.62026
534.60,69.64119
534.80,69.64746
535.00,69.64501
535.20,69.62404
535.40,69.59108
535.60,69.56896
535.80,69.56152
536.00,69.56547
536.20,69.57528
536.40,69.59187
536.60,69.60572
536.80,69.61735
537.00,69.58752
537.20,69.56856
537.40,69.53303
537.60,69.49259
537.80,69.48446
538.00,69.48537
538.20,69.47038
538.40,69.47474
538.60,69.47845
538.80,69.43262
539.00,69.42964
539.20,69.41353
539.40,69.37005
539.60,69.35961
539.80,69.36314
540.00,69.33964
540.20,69.31975
540.40,69.34662
540.60,69.32754
540.80,69.32868
541.00,69.30845
541.20,69.32182
541.40,69.27662
541.60,69.24974
541.80,69.22356
542.00,69.21431
542.20,69.21406
542.40,69.23295
542.60,69.23386
542.80,69.23681
543.00,69.26134
543.20,69.22219
543.40,69.20744
543.60,69.19966
543.80,69.19430
544.00,69.14027
544.20,69.13202
544.40,69.13303
544.60,69.11487
544.80,69.10597
545.00,69.12739
545.20,69.12799
545.40,69.12058
545.60,69.13192
545.80,69.12266
546.00,69.10384
546.20,69.09517
546.40,69.08308
546.60,69.08247
546.80,69.09923
547.00,69.11153
547.20,69.13237
547.40,69.13534
547.60,69.14071
547.80,69.14640
548.00,69.14848
548.20,69.13402
548.40,69.14989
548.60,69.10319
548.80,69.10431
549.00,69.10624
549.20,69.11204
549.40,69.11580
549.60,69.18382
549.80,69.19306
550.00,69.19084
550.20,69.22168
550.40,69.25319
550.60,69.24430
550.80,69.26706
551.00,69.27239
551.20,69.25773
551.40,69.22489
551.60,69.24205
551.80,69.24528
552.00,69.27931
552.20,69.30158
552.40,69.33635
552.60,69.35573
552.80,69.34880
553.00,69.34218
553.20,69.34646
553.40,69.37352
553.60,69.37416
553.80,69.39473
554.00,69.43669
554.20,69.46080
554.40,69.45378
554.60,69.50098
554.80,69.50926
555.00,69.49265
555.20,69.50291
555.40,69.52278
555.60,69.51708
555.80,69.54344
556.00,69.59279
556.20,69.60282
556.40,69.62538
556.60,69.64675
556.80,69.64654
557.00,69.65727
557.20,69.68306
557.40,69.71438
557.60,69.74168
557.80,69.78413
558.00,69.79899
558.20,69.83091
558.40,69.83474
558.60,69.84688
558.80,69.86882
559.00,69.87377
559.20,69.87488
559.40,69.90176
559.60,69.91468
559.80,69.91289
560.00,69.92879
560.20,69.96042
560.40,69.94405
560.60,69.96319
560.80,69.96763
561.00,69.99727
561.20,69.98680
561.40,70.01691
561.60,70.01000
561.80,70.02316
562.00,70.05071
562.20,70.08615
562.40,70.08283
562.60,70.08545
562.80,70.09956
563.00,70.09272
563.20,70.06465
563.40,70.08539
563.60,70.10874
563.80,70.11819
564.00,70.11107
564.20,70.15924
564.40,70.14629
564.60,70.12550
564.80,70.14299
565.00,70.15269
565.20,70.13328
565.40,70.15768
565.60,70.19405
565.80,70.19315
566.00,70.21253
566.20,70.19572
566.40,70.20489
566.60,70.19255
566.80,70.18343
567.00,70.17195
567.20,70.18852
567.40,70.18831
567.60,70.18428
567.80,70.20937
568.00,70.19258
568.20,70.20842
568.40,70.22278
568.60,70.24538
568.80,70.21306
569.00,70.23610
569.20,70.23574
569.40,70.20525
569.60,70.16701
569.80,70.16819
570.00,70.15103
570.20,70.15806
570.40,70.15035
570.60,70.14673
570.80,70.12668
571.00,70.10163
571.20,70.05735
571.40,70.03921
571.60,70.02876
571.80,70.03026
572.00,70.05572
572.20,70.07198
572.40,70.05152
572.60,70.03148
572.80,70.02293
573.00,69.99500
573.20,69.96083
573.40,69.95422
573.60,69.96670
573.80,69.97195
574.00,69.96610
574.20,69.97880
574.40,69.96869
574.60,69.96142
574.80,69.93907
575.00,69.92416
575.20,69.91759
575.40,69.93370
575.60,69.90932
575.80,69.88223
576.00,69.85578
576.20,69.80819
576.40,69.76956
576.60,69.77800
576.80,69.78636
577.00,69.77093
577.20,69.78237
577.40,69.76894
577.60,69.73503
577.80,69.71131
578.00,69.71834
578.20,69.65514
578.40,69.66007
578.60,69.65819
578.80,69.62801
579.00,69.61452
579.20,69.65836
579.40,69.63075
579.60,69.61996
579.80,69.62977
580.00,69.60057
580.20,69.59023
580.40,69.58909
580.60,69.59352
580.80,69.58811
581.00,69.58870
581.20,69.59147
581.40,69.57476
581.60,69.54799
581.80,69.53528
582.00,69.53768
582.20,69.51169
582.40,69.53681
582.60,69.52589
582.80,69.52046
583.00,69.51338
583.20,69.51072
583.40,69.50365
583.60,69.49929
583.80,69.48459
584.00,69.47572
584.20,69.49406
584.40,69.49605
584.60,69.50453
584.80,69.51817
585.00,69.49831
585.20,69.47468
585.40,69.46279
585.60,69.45727
585.80,69.44735
586.00,69.48268
586.20,69.46797
586.40,69.46092
586.60,69.47505
586.80,69.49867
587.00,69.48627
587.20,69.48826
587.40,69.49955
587.60,69.51027
587.80,69.49104
588.00,69.48010
588.20,69.50935
588.40,69.51451
588.60,69.52803
588.80,69.55705
589.00,69.57915
589.20,69.57853
589.40,69.56868
589.60,69.55497
589.80,69.55976
590.00,69.56477
590.20,69.57794
590.40,69.61277
590.60,69.61490
590.80,69.61916
591.00,69.65254
591.20,69.65715
591.40,69.66894
591.60,69.72109
591.80,69.74121
592.00,69.72977
592.20,69.74519
592.40,69.76393
592.60,69.77168
592.80,69.79421
593.00,69.83694
593.20,69.84190
593.40,69.82651
593.60,69.82364
593.80,69.81991
594.00,69.82794
594.20,69.84696
594.40,69.87612
594.60,69.90013
594.80,69.92245
595.00,69.93724
595.20,69.95844
595.40,69.95991
595.60,69.94700
595.80,69.93125
596.00,69.94194
596.20,69.95481
596.40,69.99375
596.60,70.02394
596.80,70.07865
597.00,70.10084
597.20,70.12724
597.40,70.14931
597.60,70.15432
597.80,70.15338
598.00,70.13676
598.20,70.16026
598.40,70.16066
598.60,70.20211
598.80,70.23436
599.00,70.28120
599.20,70.29407
599.40,70.32835
599.60,70.34239
599.80,70.35124
600.00,70.35220
600.20,70.34871
600.40,70.36823
600.60,70.35761
600.80,70.38828
601.00,70.40451
601.20,70.43709
601.40,70.42571
601.60,70.44007
601.80,70.45597
602.00,70.48064
602.20,70.49767
602.40,70.51323
602.60,70.53449
602.80,70.53173
603.00,70.55076
603.20,70.52958
603.40,70.54985
603.60,70.57388
603.80,70.56782
604.00,70.55217
604.20,70.58665
604.40,70.59224
604.60,70.58711
604.80,70.61091
605.00,70.62109
605.20,70.62508
605.40,70.62282
605.60,70.64470
605.80,70.64198
606.00,70.63568
606.20,70.66478
606.40,70.69383
606.60,70.69786
606.80,70.71620
607.00,70.74462
607.20,70.69961
607.40,70.69043
607.60,70.70980
607.80,70.68468
608.00,70.68166
608.20,70.71117
608.40,70.70501
608.60,70.68170
608.80,70.71242
609.00,70.69051
609.20,70.69470
609.40,70.70380
609.60,70.70227
609.80,70.67158
610.00,70.70876
610.20,70.67903
610.40,70.68991
610.60,70.71001
610.80,70.72468
611.00,70.71606
611.20,70.72198
611.40,70.72324
611.60,70.69721
611.80,70.69734
612.00,70.69926
612.20,70.69771
612.40,70.65354
612.60,70.64195
612.80,70.62123
613.00,70.59601
613.20,70.59888
613.40,70.59336
613.60,70.59833
613.80,70.59413
614.00,70.58471
614.20,70.59767
614.40,70.58169
614.60,70.55418
614.80,70.52817
615.00,70.53081
615.20,70.50256
615.40,70.50705
615.60,70.51606
615.80,70.50245
616.00,70.47471
616.20,70.45624
616.40,70.43620
616.60,70.42631
616.80,70.43110
617.00,70.42855
617.20,70.40236
617.40,70.42035
617.60,70.39118
617.80,70.38741
618.00,70.36269
618.20,70.36017
618.40,70.32207
618.60,70.29238
618.80,70.25386
619.00,70.26598
619.20,70.23903
619.40,70.23026
619.60,70.22439
619.80,70.22910
620.00,70.18599
620.20,70.18349
620.40,70.15373
620.60,70.15088
620.80,70.14425
621.00,70.16496
621.20,70.16800
621.40,70.18992
621.60,70.19398
621.80,70.19329
622.00,70.17931
622.20,70.15845
622.40,70.14875
622.60,70.14462
622.80,70.11690
623.00,70.08656
623.20,70.08702
623.40,70.05654
623.60,70.02484
623.80,70.01365
624.00,70.01587
624.20,70.00301
624.40,69.99765
624.60,70.00358
624.80,70.00300
625.00,70.01085
625.20,70.00779
625.40,70.02656
625.60,70.02065
625.80,70.03935
626.00,70.00836
626.20,69.99217
626.40,69.96559
626.60,69.98255
626.80,69.94786
627.00,69.95960
627.20,69.96744
627.40,69.95630
627.60,69.91308
627.80,69.90126
628.00,69.92362
628.20,69.90036
628.40,69.90974
628.60,69.91030
628.80,69.92857
629.00,69.88997
629.20,69.92353
629.40,69.90782
629.60,69.88808
629.80,69.88155
630.00,69.88163
630.20,69.84503
630.40,69.83750
630.60,69.87473
630.80,69.87395
631.00,69.87831
631.20,69.88716
631.40,69.92981
631.60,69.90469
631.80,69.93169
632.00,69.90605
632.20,69.93201
632.40,69.94299
632.60,69.97744
632.80,69.96572
633.00,70.00349
633.20,70.00221
633.40,69.98373
633.60,69.99188
633.80,70.01727
634.00,70.04488
634.20,70.05906
634.40,70.07179
634.60,70.06760
634.80,70.06968
635.00,70.08311
635.20,70.09163
635.40,70.07300
635.60,70.06748
635.80,70.03782
636.00,70.00303
636.20,70.00771
636.40,70.05457
636.60,70.09043
636.80,70.14649
637.00,70.18523
637.20,70.17018
637.40,70.18487
637.60,70.20074
637.80,70.19680
638.00,70.21892
638.20,70.24363
638.40,70.26711
638.60,70.26180
638.80,70.27409
639.00,70.29114
639.20,70.30637
639.40,70.31091
639.60,70.32111
639.80,70.32300
640.00,70.35753
640.20,70.37531
640.40,70.35545
640.60,70.37527
640.80,70.42271
641.00,70.39784
641.20,70.40537
641.40,70.46568
641.60,70.48128
641.80,70.46556
642.00,70.47887
642.20,70.49162
642.40,70.48050
642.60,70.52658
642.80,70.54424
643.00,70.56462
643.20,70.59926
643.40,70.64999
643.60,70.64128
643.80,70.69066
644.00,70.70372
644.20,70.71108
644.40,70.69527
644.60,70.70522
644.80,70.71448
645.00,70.74565
645.20,70.76712
645.40,70.76707
645.60,70.78174
645.80,70.75337
646.00,70.74166
646.20,70.77212
646.40,70.82426
646.60,70.84546
646.80,70.89221
647.00,70.90018
647.20,70.94610
647.40,70.94380
647.60,70.95594
647.80,70.93651
648.00,70.96860
648.20,70.91073
648.40,70.93052
648.60,70.93302
648.80,70.97812
649.00,70.97365
649.20,70.97117
649.40,70.94004
649.60,70.96007
649.80,70.98009
650.00,71.01080
650.20,71.06944
650.40,71.10484
650.60,71.09857
650.80,71.11111
651.00,71.10078
651.20,71.11250
651.40,71.09022
651.60,71.11088
651.80,71.11086
652.00,71.13040
652.20,71.10565
652.40,71.15346
652.60,71.17040
652.80,71.12325
653.00,71.12791
653.20,71.14809
653.40,71.14471
653.60,71.12041
653.80,71.16621
654.00,71.18652
654.20,71.18256
654.40,71.18764
654.60,71.18835
654.80,71.18616
655.00,71.17563
655.20,71.17855
655.40,71.18282
655.60,71.20607
655.80,71.22525
656.00,71.20546
656.20,71.22783
656.40,71.23279
656.60,71.22515
656.80,71.21010
657.00,71.23622
657.20,71.22558
657.40,71.22283
657.60,71.23451
657.80,71.22369
658.00,71.20167
658.20,71.17862
658.40,71.15753
658.60,71.18397
658.80,71.20451
659.00,71.23208
659.20,71.24327
659.40,71.22210
659.60,71.19278
659.80,71.17909
660.00,71.18919
660.20,71.20192
660.40,71.21611
660.60,71.21857
660.80,71.19355
661.00,71.16777
661.20,71.16449
661.40,71.16835
661.60,71.15839
661.80,71.16952
662.00,71.19408
662.20,71.13960
662.40,71.15704
662.60,71.13429
662.80,71.11895
663.00,71.04155
663.20,71.03032
663.40,70.99056
663.60,70.98519
663.80,71.00260
664.00,71.03212
664.20,71.09592
664.40,71.08713
664.60,71.07918
664.80,71.05042
665.00,71.03273
665.20,70.99530
665.40,70.98117
665.60,70.99013
665.80,70.99678
666.00,70.97129
666.20,70.93501
666.40,70.96868
666.60,70.92824
666.80,70.90281
667.00,70.94370
667.20,70.92726
667.40,70.87102
667.60,70.88429
667.80,70.90266
668.00,70.84110
668.20,70.86724
668.40,70.83775
668.60,70.82056
668.80,70.77501
669.00,70.76240
669.20,70.74397
669.40,70.73959
669.60,70.71861
669.80,70.70082
670.00,70.73326
670.20,70.70370
670.40,70.73798
670.60,70.77844
670.80,70.80514
671.00,70.76680
671.20,70.77854
671.40,70.77030
671.60,70.73607
671.80,70.70457
672.00,70.65747
672.20,70.64027
672.40,70.61421
672.60,70.56783
672.80,70.56959
673.00,70.61086
673.20,70.57945
673.40,70.56450
673.60,70.57374
673.80,70.54977
674.00,70.56494
674.20,70.57408
674.40,70.55590
674.60,70.52888
674.80,70.55490
675.00,70.53627
675.20,70.53459
675.40,70.54440
675.60,70.56510
675.80,70.54088
676.00,70.48678
676.20,70.47506
676.40,70.47932
676.60,70.44261
676.80,70.45398
677.00,70.47879
677.20,70.48996
677.40,70.44329
677.60,70.50105
677.80,70.46080
678.00,70.44984
678.20,70.41876
678.40,70.44587
678.60,70.39028
678.80,70.37508
679.00,70.42018
679.20,70.45590
679.40,70.45144
679.60,70.47098
679.80,70.48523
680.00,70.43582
680.20,70.44051
680.40,70.44337
680.60,70.42757
680.80,70.43242
681.00,70.43307
681.20,70.43907
681.40,70.42626
681.60,70.43059
681.80,70.40377
682.00,70.39557
682.20,70.35834
682.40,70.32524
682.60,70.34315
682.80,70.37953
683.00,70.40045
683.20,70.40756
683.40,70.45285
683.60,70.47318
683.80,70.48247
684.00,70.48690
684.20,70.50604
684.40,70.49654
684.60,70.44265
684.80,70.43086
685.00,70.44051
685.20,70.43058
685.40,70.39249
685.60,70.40324
685.80,70.39533
686.00,70.40116
686.20,70.42494
686.40,70.45299
686.60,70.46261
686.80,70.45578
687.00,70.40383
687.20,70.39449
687.40,70.39887
687.60,70.43539
687.80,70.45973
688.00,70.57405
688.20,70.61167
688.40,70.64986
688.60,70.65904
688.80,70.66638
689.00,70.57858
689.20,70.56635
689.40,70.56667
689.60,70.59763
689.80,70.61030
690.00,70.61503
690.20,70.61000
690.40,70.64259
690.60,70.63080
690.80,70.63084
691.00,70.65899
691.20,70.67691
691.40,70.67307
691.60,70.69565
691.80,70.74115
692.00,70.74230
692.20,70.77830
692.40,70.80941
692.60,70.77137
692.80,70.71809
693.00,70.78005
693.20,70.75176
693.40,70.72226
693.60,70.75192
693.80,70.82767
694.00,70.81999
694.20,70.81871
694.40,70.88879
694.60,70.88792
694.80,70.91024
695.00,70.91076
695.20,70.98756
695.40,70.94151
695.60,70.99470
695.80,71.00247
696.00,71.03519
696.20,71.00148
696.40,71.04658
696.60,71.10056
696.80,71.08893
697.00,71.08727
697.20,71.12046
697.40,71.11714
697.60,71.02544
697.80,71.03849
698.00,71.07816
698.20,71.09908
698.40,71.12324
698.60,71.18950
698.80,71.21102
699.00,71.18925
699.20,71.18787
699.40,71.22026
699.60,71.27593
699.80,71.26462
700.00,71.34730
700.20,71.30187
700.40,71.28751
700.60,71.24671
700.80,71.27546
701.00,71.23467
701.20,71.29291
701.40,71.31429
701.60,71.34283
701.80,71.32356
702.00,71.32002
702.20,71.35683
702.40,71.37089
702.60,71.36115
702.80,71.41070
703.00,71.44815
703.20,71.43533
703.40,71.45854
703.60,71.50572
703.80,71.51062
704.00,71.49501
704.20,71.51214
704.40,71.45708
704.60,71.45259
704.80,71.46569
705.00,71.51241
705.20,71.56121
705.40,71.60147
705.60,71.63625
705.80,71.63614
706.00,71.62772
706.20,71.62535
706.40,71.67603
706.60,71.71141
706.80,71.72675
707.00,71.74318
707.20,71.73591
707.40,71.73653
707.60,71.73497
707.80,71.78099
708.00,71.77282
708.20,71.72651
708.40,71.75249
708.60,71.69285
708.80,71.64609
709.00,71.70670
709.20,71.78941
709.40,71.79781
709.60,71.81892
709.80,71.85837
710.00,71.74862
710.20,71.70286
710.40,71.69274
710.60,71.67636
710.80,71.68305
711.00,71.77486
711.20,71.79317
711.40,71.81669
711.60,71.86859
711.80,71.85764
712.00,71.83586
712.20,71.85814
712.40,71.84609
712.60,71.75844
712.80,71.78288
713.00,71.82112
713.20,71.78558
713.40,71.81975
713.60,71.93868
713.80,71.92366
714.00,71.89535
714.20,71.93501
714.40,71.97804
714.60,71.97581
714.80,71.99454
715.00,72.01118
715.20,71.97444
715.40,71.84917
715.60,71.75843
715.80,71.72418
716.00,71.73668
716.20,71.77069
716.40,71.76224
716.60,71.82975
716.80,71.87279
717.00,71.80766
717.20,71.77083
717.40,71.76433
717.60,71.73586
717.80,71.71908
718.00,71.76104
718.20,71.77737
718.40,71.79334
718.60,71.79005
718.80,71.74783
719.00,71.72957
719.20,71.73865
719.40,71.73421
719.60,71.70384
719.80,71.75661
720.00,71.73910
720.20,71.74048
720.40,71.73851
720.60,71.80084
720.80,71.76331
721.00,71.75515
721.20,71.76432
721.40,71.79040
721.60,71.72397
721.80,71.70891
722.00,71.73387
722.20,71.68761
722.40,71.68205
722.60,71.74426
722.80,71.74736
723.00,71.76649
723.20,71.75648
723.40,71.71903
723.60,71.66370
723.80,71.64233
724.00,71.59517
724.20,71.60618
724.40,71.62269
724.60,71.62987
724.80,71.59791
725.00,71.55155
725.20,71.53317
725.40,71.54143
725.60,71.48457
725.80,71.50106
726.00,71.49441
726.20,71.47354
726.40,71.47274
726.60,71.44566
726.80,71.46086
727.00,71.46407
727.20,71.42380
727.40,71.40343
727.60,71.41926
727.80,71.36015
728.00,71.43888
728.20,71.44318
728.40,71.38411
728.60,71.37607
728.80,71.45888
729.00,71.36286
729.20,71.31914
729.40,71.36794
729.60,71.33543
729.80,71.27802
730.00,71.34554
730.20,71.41865
730.40,71.34825
730.60,71.35634
730.80,71.31683
731.00,71.21618
731.20,71.22160
731.40,71.27317
731.60,71.29481
731.80,71.27827
732.00,71.30062
732.20,71.23623
732.40,71.17968
732.60,71.11800
732.80,71.13261
733.00,71.09655
733.20,71.11073
733.40,71.11776
733.60,71.14016
733.80,71.11969
734.00,71.10094
734.20,71.09809
734.40,71.07276
734.60,71.05641
734.80,71.02374
735.00,71.06804
735.20,71.07629
735.40,71.11942
735.60,71.11380
735.80,71.12080
736.00,71.10050
736.20,71.06752
736.40,71.03904
736.60,71.08073
736.80,71.09516
737.00,71.14366
737.20,71.18539
737.40,71.21210
737.60,71.19328
737.80,71.20339
738.00,71.15883
738.20,71.07276
738.40,71.03904
738.60,71.06234
738.80,71.06495
739.00,71.04089
739.20,71.10737
739.40,71.06481
739.60,71.06203
739.80,71.03186
740.00,71.04076
740.20,71.00585
740.40,71.03516
740.60,70.94697
740.80,70.90285
741.00,70.83852
741.20,70.86748
741.40,70.84525
741.60,70.85694
741.80,70.81133
742.00,70.83180
742.20,70.76699
742.40,70.74056
742.60,70.78962
742.80,70.89752
743.00,70.89904
743.20,70.99811
743.40,71.10914
743.60,71.10528
743.80,71.09027
744.00,71.19482
744.20,71.15886
744.40,71.06980
744.60,71.07533
744.80,71.03828
745.00,71.00416
745.20,70.97924
745.40,70.97884
745.60,70.96902
745.80,71.00858
746.00,71.03052
746.20,71.04329
746.40,71.07612
746.60,71.05904
746.80,71.13930
747.00,71.12951
747.20,71.13883
747.40,71.13860
747.60,71.13920
747.80,71.05757
748.00,70.93563
748.20,70.97797
748.40,70.98716
748.60,70.99882
748.80,71.00105
749.00,71.09343
749.20,71.06493
749.40,71.10811
749.60,71.12572
749.80,71.19008
750.00,71.18214
750.20,71.16667
750.40,71.15501
750.60,71.20636
750.80,71.20947
751.00,71.19787
751.20,71.20038
751.40,71.22288
751.60,71.21515
751.80,71.16325
752.00,71.18546
752.20,71.17336
752.40,71.09160
752.60,71.06729
752.80,71.14192
753.00,71.13762
753.20,71.11888
753.40,71.18580
753.60,71.20001
753.80,71.28353
754.00,71.23863
754.20,71.37967
754.40,71.47502
754.60,71.56290
754.80,71.45123
755.00,71.58566
755.20,71.53197
755.40,71.45514
755.60,71.30500
755.80,71.24104
756.00,71.19198
756.20,71.25993
756.40,71.26157
756.60,71.24293
756.80,71.25762
757.00,71.25904
757.20,71.23435
757.40,71.23796
757.60,71.32689
757.80,71.37580
758.00,71.48427
758.20,71.44491
758.40,71.54644
758.60,71.54607
758.80,71.59995
759.00,71.50657
759.20,71.59828
759.40,71.45787
759.60,71.49342
759.80,71.47832
760.00,71.54306
760.20,71.54320
760.40,71.60126
760.60,71.65812
760.80,71.62734
761.00,71.59932
761.20,71.48505
761.40,71.51405
761.60,71.57731
761.80,71.62008
762.00,71.67487
762.20,71.67349
762.40,71.64953
762.60,71.56844
762.80,71.59867
763.00,71.56758
763.20,71.67233
763.40,71.80126
763.60,71.81838
763.80,71.74082
764.00,71.78416
764.20,71.78814
764.40,71.74641
764.60,71.76020
764.80,71.84802
765.00,71.80252
765.20,71.89705
765.40,71.90745
765.60,71.88539
765.80,71.90279
766.00,71.97116
766.20,71.86517
766.40,71.85937
766.60,71.87489
766.80,71.84473
767.00,71.85670
767.20,71.88285
767.40,71.89440
767.60,71.95983
767.80,71.97877
768.00,72.04494
768.20,72.04544
768.40,71.96116
768.60,71.93323
768.80,71.99407
769.00,71.92593
769.20,71.91243
769.40,72.05178
769.60,72.10838
769.80,72.04854
770.00,72.06535
770.20,72.17820
770.40,72.09323
770.60,72.07804
770.80,72.18034
771.00,72.17669
771.20,72.12051
771.40,72.22448
771.60,72.26900
771.80,72.20591
772.00,72.21571
772.20,72.15288
772.40,72.21317
772.60,72.16974
772.80,72.20909
773.00,72.26339
773.20,72.36205
773.40,72.28503
773.60,72.35540
773.80,72.32060
774.00,72.30739
774.20,72.31393
774.40,72.32663
774.60,72.32881
774.80,72.42969
775.00,72.33064
775.20,72.22507
775.40,72.18701
775.60,72.10563
775.80,72.03249
776.00,72.15134
776.20,72.27699
776.40,72.31379
776.60,72.31635
776.80,72.36127
777.00,72.36284
777.20,72.38273
777.40,72.41417
777.60,72.47745
777.80,72.44026
778.00,72.45570
778.20,72.43538
778.40,72.34934
778.60,72.30530
778.80,72.39260
779.00,72.36192
779.20,72.42229
779.40,72.50289
779.60,72.53993
779.80,72.53682
780.00,72.56198
780.20,72.46723
780.40,72.49265
780.60,72.46458
780.80,72.40287
781.00,72.34309
781.20,72.43521
781.40,72.39860
781.60,72.40331
781.80,72.34672
782.00,72.26750
782.20,72.14674
782.40,72.14079
782.60,72.06255
782.80,72.12074
783.00,72.36919
783.20,72.36774
783.40,72.41927
783.60,72.55762
783.80,72.66525
784.00,72.40767
784.20,72.38849
784.40,72.23018
784.60,72.14901
784.80,71.95448
785.00,72.11604
785.20,72.17690
785.40,72.27228
785.60,72.34882
785.80,72.46864
786.00,72.34843
786.20,72.42195
786.40,72.52800
786.60,72.49905
786.80,72.48004
787.00,72.55661
787.20,72.51500
787.40,72.34821
787.60,72.32876
787.80,72.28461
788.00,72.28495
788.20,72.22331
788.40,72.33672
788.60,72.25151
788.80,72.34503
789.00,72.36241
789.20,72.40816
789.40,72.32339
789.60,72.49039
789.80,72.46181
790.00,72.44884
790.20,72.38375
790.40,72.46456
790.60,72.41234
790.80,72.41952
791.00,72.41423
791.20,72.48580
791.40,72.35966
791.60,72.18911
791.80,72.11484
792.00,72.09435
792.20,72.12633
792.40,72.18819
792.60,72.20494
792.80,72.23743
793.00,72.27241
793.20,72.16421
793.40,72.02551
793.60,71.98876
793.80,72.01520
794.00,71.97953
794.20,72.02301
794.40,72.15071
794.60,72.27642
794.80,72.22017
795.00,72.24612
795.20,72.17953
795.40,72.18306
795.60,72.25409
795.80,72.16527
796.00,72.16342
796.20,72.22427
796.40,72.21947
796.60,72.15834
796.80,72.14081
797.00,72.10267
797.20,72.16851
797.40,72.15092
797.60,72.08244
797.80,72.18321
798.00,72.27131
798.20,72.27601
798.40,72.27700
798.60,72.23873
798.80,72.27021
799.00,72.12303
799.20,71.97134
799.40,72.03442
799.60,71.96657
799.80,71.77930
800.00,71.67823
