λ (nm),Ts
200.0,0.7001000000000001
200.06,0.70016
200.12,0.7002200000000001
200.18,0.70028
200.24,0.7003400000000001
200.3,0.7004
200.36,0.7004600000000001
200.42,0.70052
200.48,0.70058
200.54,0.70064
200.6,0.7007
200.66,0.7007599999999999
200.72,0.70082
200.78,0.70088
200.84,0.70094
200.9,0.701
200.96,0.7010599999999999
201.02,0.7011259999999999
201.08,0.7012039999999999
201.14,0.701282
201.2,0.7013599999999999
201.26,0.7014379999999999
201.32,0.7015159999999999
201.38,0.7015939999999999
201.44,0.701672
201.5,0.7017499999999999
201.56,0.7018279999999999
201.62,0.7019059999999999
201.68,0.7019839999999999
201.74,0.702062
201.8,0.70214
201.86,0.7022179999999999
201.92,0.7022959999999999
201.98,0.7023739999999999
202.04,0.702444
202.1,0.7025099999999999
202.16,0.7025759999999999
202.22,0.7026419999999999
202.28,0.7027079999999999
202.34,0.7027739999999999
202.4,0.7028399999999999
202.46,0.7029059999999999
202.52,0.7029719999999999
202.58,0.7030379999999999
202.64,0.7031039999999998
202.7,0.7031699999999999
202.76,0.7032359999999999
202.82,0.7033019999999999
202.88,0.7033679999999999
202.94,0.7034339999999999
203.0,0.7034999999999999
203.06,0.7035539999999999
203.12,0.7036079999999999
203.18,0.7036619999999999
203.24,0.7037159999999999
203.3,0.7037699999999999
203.36,0.703824
203.42,0.7038779999999999
203.48,0.703932
203.54,0.703986
203.6,0.70404
203.66,0.704094
203.72,0.704148
203.78,0.704202
203.84,0.704256
203.9,0.70431
203.96,0.704364
204.02,0.704422
204.08,0.704488
204.14,0.704554
204.2,0.70462
204.26,0.704686
204.32,0.704752
204.38,0.7048180000000001
204.44,0.7048840000000001
204.5,0.70495
204.56,0.705016
204.62,0.705082
204.68,0.705148
204.74,0.705214
204.8,0.70528
204.86,0.705346
204.92,0.705412
204.98,0.705478
205.04,0.7055400000000001
205.1,0.7056
205.16,0.7056600000000001
205.22,0.70572
205.28,0.70578
205.34,0.70584
205.4,0.7059
205.46,0.70596
205.52,0.70602
205.58,0.70608
205.64,0.70614
205.7,0.7062
205.76,0.70626
205.82,0.7063200000000001
205.88,0.70638
205.94,0.7064400000000001
206.0,0.7065
206.06,0.706554
206.12,0.706608
206.18,0.706662
206.24,0.706716
206.3,0.70677
206.36,0.706824
206.42,0.706878
206.48,0.706932
206.54,0.706986
206.6,0.70704
206.66,0.707094
206.72,0.707148
206.78,0.7072019999999999
206.84,0.7072559999999999
206.9,0.7073099999999999
206.96,0.7073639999999999
207.02,0.7074199999999999
207.08,0.7074799999999999
207.14,0.70754
207.2,0.7075999999999999
207.26,0.70766
207.32,0.7077199999999999
207.38,0.70778
207.44,0.7078399999999999
207.5,0.7079
207.56,0.70796
207.62,0.70802
207.68,0.70808
207.74,0.70814
207.8,0.7082
207.86,0.70826
207.92,0.7083200000000001
207.98,0.70838
208.04,0.7084400000000001
208.1,0.7085
208.16,0.7085600000000001
208.22,0.70862
208.28,0.70868
208.34,0.70874
208.4,0.7088
208.46,0.70886
208.52,0.70892
208.58,0.70898
208.64,0.70904
208.7,0.7091000000000001
208.76,0.70916
208.82,0.7092200000000001
208.88,0.70928
208.94,0.7093400000000001
209.0,0.7094
209.06,0.709466
209.12,0.709532
209.18,0.7095980000000001
209.24,0.7096640000000001
209.3,0.7097300000000001
209.36,0.7097960000000001
209.42,0.709862
209.48,0.709928
209.54,0.709994
209.6,0.71006
209.66,0.710126
209.72,0.710192
209.78,0.7102580000000001
209.84,0.7103240000000001
209.9,0.7103900000000001
209.96,0.710456
210.02,0.71052
210.08,0.71058
210.14,0.71064
210.2,0.7107
210.26,0.7107600000000001
210.32,0.71082
210.38,0.7108800000000001
210.44,0.71094
210.5,0.7110000000000001
210.56,0.71106
210.62,0.71112
210.68,0.71118
210.74,0.71124
210.8,0.7113
210.86,0.71136
210.92,0.71142
210.98,0.71148
211.04,0.7115440000000001
211.1,0.71161
211.16,0.711676
211.22,0.711742
211.28,0.711808
211.34,0.711874
211.4,0.71194
211.46,0.712006
211.52,0.712072
211.58,0.712138
211.64,0.712204
211.7,0.71227
211.76,0.712336
211.82,0.712402
211.88,0.712468
211.94,0.712534
212.0,0.7126
212.06,0.71266
212.12,0.71272
212.18,0.71278
212.24,0.71284
212.3,0.7129
212.36,0.71296
212.42,0.71302
212.48,0.71308
212.54,0.71314
212.6,0.7132000000000001
212.66,0.71326
212.72,0.7133200000000001
212.78,0.71338
212.84,0.71344
212.9,0.7135
212.96,0.71356
213.02,0.713622
213.08,0.713688
213.14,0.713754
213.2,0.71382
213.26,0.713886
213.32,0.713952
213.38,0.714018
213.44,0.714084
213.5,0.7141500000000001
213.56,0.714216
213.62,0.714282
213.68,0.714348
213.74,0.714414
213.8,0.71448
213.86,0.714546
213.92,0.714612
213.98,0.714678
214.04,0.714744
214.1,0.71481
214.16,0.714876
214.22,0.714942
214.28,0.715008
214.34,0.715074
214.4,0.71514
214.46,0.715206
214.52,0.715272
214.58,0.715338
214.64,0.7154039999999999
214.7,0.7154699999999999
214.76,0.715536
214.82,0.715602
214.88,0.715668
214.94,0.715734
215.0,0.7158
215.06,0.715872
215.12,0.715944
215.18,0.716016
215.24,0.7160880000000001
215.3,0.71616
215.36,0.7162320000000001
215.42,0.716304
215.48,0.716376
215.54,0.7164480000000001
215.6,0.71652
215.66,0.716592
215.72,0.7166640000000001
215.78,0.716736
215.84,0.7168080000000001
215.9,0.7168800000000001
215.96,0.716952
216.02,0.717022
216.07999999999998,0.7170880000000001
216.14,0.7171540000000001
216.2,0.7172200000000001
216.26,0.7172860000000001
216.32,0.7173520000000001
216.38,0.7174180000000001
216.44,0.7174840000000001
216.5,0.7175500000000001
216.56,0.717616
216.62,0.717682
216.68,0.717748
216.74,0.7178140000000001
216.8,0.7178800000000001
216.86,0.7179460000000001
216.92,0.7180120000000001
216.98,0.7180780000000001
217.04,0.7181440000000001
217.1,0.71821
217.16,0.718276
217.22,0.718342
217.28,0.718408
217.34,0.7184740000000001
217.4,0.7185400000000001
217.46,0.7186060000000001
217.52,0.7186720000000001
217.57999999999998,0.7187380000000001
217.64,0.718804
217.7,0.71887
217.76,0.718936
217.82,0.719002
217.88,0.719068
217.94,0.719134
218.0,0.7192000000000001
218.06,0.719272
218.12,0.7193440000000001
218.18,0.719416
218.24,0.719488
218.3,0.7195600000000001
218.36,0.719632
218.42,0.719704
218.48,0.7197760000000001
218.54,0.719848
218.6,0.71992
218.66,0.7199920000000001
218.72,0.720064
218.78,0.720136
218.84,0.7202080000000001
218.9,0.72028
218.96,0.7203520000000001
219.02,0.720422
219.07999999999998,0.720488
219.14,0.720554
219.2,0.72062
219.26,0.720686
219.32,0.7207520000000001
219.38,0.7208180000000001
219.44,0.7208840000000001
219.5,0.72095
219.56,0.721016
219.62,0.721082
219.68,0.721148
219.74,0.721214
219.8,0.72128
219.86,0.721346
219.92,0.721412
219.98,0.7214780000000001
220.04,0.7215440000000001
220.1,0.72161
220.16,0.721676
220.22,0.721742
220.28,0.721808
220.34,0.721874
220.4,0.72194
220.46,0.722006
220.52,0.722072
220.57999999999998,0.7221380000000001
220.64,0.722204
220.7,0.72227
220.76,0.722336
220.82,0.722402
220.88,0.722468
220.94,0.722534
221.0,0.7226
221.06,0.722672
221.12,0.722744
221.18,0.722816
221.24,0.722888
221.3,0.72296
221.36,0.723032
221.42,0.723104
221.48,0.723176
221.54,0.723248
221.6,0.72332
221.66,0.723392
221.72,0.723464
221.78,0.723536
221.84,0.723608
221.9,0.72368
221.96,0.7237520000000001
222.02,0.723822
222.07999999999998,0.723888
222.14,0.723954
222.2,0.72402
222.26,0.724086
222.32,0.724152
222.38,0.724218
222.44,0.724284
222.5,0.72435
222.56,0.724416
222.62,0.724482
222.68,0.724548
222.74,0.724614
222.8,0.72468
222.86,0.724746
222.92,0.724812
222.98,0.724878
223.04,0.724944
223.1,0.7250099999999999
223.16,0.7250759999999999
223.22,0.725142
223.28,0.725208
223.34,0.725274
223.4,0.72534
223.46,0.725406
223.52,0.725472
223.57999999999998,0.725538
223.64,0.7256039999999999
223.7,0.7256699999999999
223.76,0.7257359999999999
223.82,0.725802
223.88,0.725868
223.94,0.725934
224.0,0.726
224.06,0.726066
224.12,0.726132
224.18,0.726198
224.24,0.726264
224.3,0.72633
224.36,0.726396
224.42,0.7264619999999999
224.48,0.726528
224.54,0.726594
224.6,0.72666
224.66,0.726726
224.72,0.726792
224.78,0.726858
224.84,0.726924
224.9,0.72699
224.96,0.7270559999999999
225.02,0.727144
225.07999999999998,0.7272759999999999
225.14,0.7274079999999999
225.2,0.72754
225.26,0.727672
225.32,0.727804
225.38,0.727936
225.44,0.728068
225.5,0.7282
225.56,0.728332
225.62,0.728464
225.68,0.728596
225.74,0.728728
225.8,0.7288600000000001
225.86,0.7289920000000001
225.92,0.729124
225.98,0.729256
226.04,0.729388
226.1,0.7295200000000001
226.16,0.7296520000000001
226.22,0.7297840000000001
226.28,0.729916
226.34,0.730048
226.4,0.73018
226.46,0.7303120000000001
226.52,0.7304440000000001
226.57999999999998,0.730576
226.64,0.730708
226.7,0.73084
226.76,0.7309720000000001
226.82,0.731104
226.88,0.731236
226.94,0.731368
227.0,0.7315
227.06,0.731626
227.12,0.7317520000000001
227.18,0.731878
227.24,0.7320040000000001
227.3,0.7321300000000001
227.36,0.732256
227.42,0.732382
227.48,0.732508
227.54,0.732634
227.6,0.73276
227.66,0.732886
227.72,0.733012
227.78,0.7331380000000001
227.84,0.733264
227.9,0.7333900000000001
227.96,0.7335160000000001
228.02,0.733642
228.07999999999998,0.733768
228.14,0.7338939999999999
228.2,0.73402
228.26,0.734146
228.32,0.7342719999999999
228.38,0.734398
228.44,0.734524
228.5,0.73465
228.56,0.734776
228.62,0.7349019999999999
228.68,0.735028
228.74,0.735154
228.8,0.7352799999999999
228.86,0.735406
228.92,0.7355319999999999
228.98,0.7356579999999999
229.04,0.7357839999999999
229.1,0.73591
229.16,0.7360359999999999
229.22,0.736162
229.28,0.7362879999999999
229.34,0.7364139999999999
229.4,0.73654
229.46,0.7366659999999999
229.52,0.736792
229.57999999999998,0.736918
229.64,0.7370439999999999
229.7,0.73717
229.76,0.737296
229.82,0.737422
229.88,0.737548
229.94,0.737674
230.0,0.7378
230.06,0.737926
230.12,0.738052
230.18,0.738178
230.24,0.7383040000000001
230.3,0.73843
230.36,0.738556
230.42,0.738682
230.48,0.738808
230.54,0.738934
230.6,0.7390599999999999
230.66,0.739186
230.72,0.739312
230.78,0.739438
230.84,0.739564
230.9,0.7396900000000001
230.96,0.739816
231.02,0.739942
231.07999999999998,0.740068
231.14,0.740194
231.2,0.74032
231.26,0.7404459999999999
231.32,0.740572
231.38,0.740698
231.44,0.740824
231.5,0.74095
231.56,0.741076
231.62,0.741202
231.68,0.741328
231.74,0.7414540000000001
231.8,0.74158
231.86,0.741706
231.92,0.7418319999999999
231.98,0.741958
232.04,0.742084
232.1,0.7422099999999999
232.16,0.742336
232.22,0.742462
232.28,0.742588
232.34,0.742714
232.4,0.7428400000000001
232.46,0.742966
232.51999999999998,0.743092
232.57999999999998,0.7432179999999999
232.64,0.743344
232.7,0.74347
232.76,0.7435959999999999
232.82,0.743722
232.88,0.743848
232.94,0.743974
233.0,0.7441
233.06,0.74422
233.12,0.74434
233.18,0.74446
233.24,0.74458
233.3,0.7447
233.36,0.74482
233.42000000000002,0.74494
233.48,0.74506
233.54,0.74518
233.6,0.7453
233.66,0.74542
233.72,0.74554
233.78,0.74566
233.84,0.74578
233.9,0.7459
233.96,0.74602
234.01999999999998,0.746142
234.07999999999998,0.7462679999999999
234.14,0.746394
234.2,0.74652
234.26,0.7466459999999999
234.32,0.746772
234.38,0.746898
234.44,0.747024
234.5,0.74715
234.56,0.7472759999999999
234.62,0.747402
234.68,0.747528
234.74,0.747654
234.8,0.74778
234.86,0.747906
234.92000000000002,0.748032
234.98,0.748158
235.04,0.74828
235.1,0.7484
235.16,0.74852
235.22,0.74864
235.28,0.74876
235.34,0.74888
235.4,0.749
235.46,0.74912
235.51999999999998,0.7492399999999999
235.57999999999998,0.7493599999999999
235.64,0.7494799999999999
235.7,0.7495999999999999
235.76,0.7497199999999999
235.82,0.74984
235.88,0.74996
235.94,0.75008
236.0,0.7502
236.06,0.7503259999999999
236.12,0.750452
236.18,0.750578
236.24,0.750704
236.3,0.75083
236.36,0.7509560000000001
236.42000000000002,0.751082
236.48,0.751208
236.54,0.7513340000000001
236.6,0.75146
236.66,0.7515860000000001
236.72,0.751712
236.78,0.751838
236.84,0.7519640000000001
236.9,0.75209
236.96,0.7522160000000001
237.01999999999998,0.75234
237.07999999999998,0.75246
237.14,0.75258
237.2,0.7527
237.26,0.75282
237.32,0.75294
237.38,0.7530600000000001
237.44,0.7531800000000001
237.5,0.7533000000000001
237.56,0.7534200000000001
237.62,0.7535400000000001
237.68,0.7536600000000001
237.74,0.7537800000000001
237.8,0.7539000000000001
237.86,0.7540200000000001
237.92000000000002,0.7541400000000001
237.98,0.75426
238.04,0.75438
238.1,0.7545000000000001
238.16,0.7546200000000001
238.22,0.7547400000000001
238.28,0.7548600000000001
238.34,0.7549800000000001
238.4,0.7551000000000001
238.46,0.75522
238.51999999999998,0.75534
238.57999999999998,0.75546
238.64,0.75558
238.7,0.7556999999999999
238.76,0.7558199999999999
238.82,0.75594
238.88,0.75606
238.94,0.75618
239.0,0.7563
239.06,0.75642
239.12,0.75654
239.18,0.75666
239.24,0.75678
239.3,0.7569
239.36,0.75702
239.42000000000002,0.75714
239.48,0.7572599999999999
239.54,0.7573799999999999
239.6,0.7575
239.66,0.75762
239.72,0.75774
239.78,0.75786
239.84,0.75798
239.9,0.7581
239.96,0.75822
240.01999999999998,0.7583399999999999
240.07999999999998,0.7584599999999999
240.14,0.7585799999999999
240.2,0.7586999999999999
240.26,0.7588199999999999
240.32,0.75894
240.38,0.75906
240.44,0.75918
240.5,0.7593
240.56,0.75942
240.62,0.75954
240.68,0.75966
240.74,0.75978
240.8,0.7599
240.86,0.76002
240.92000000000002,0.76014
240.98,0.7602599999999999
241.04,0.76038
241.1,0.7605
241.16,0.76062
241.22,0.76074
241.28,0.76086
241.34,0.76098
241.4,0.7611
241.46,0.76122
241.51999999999998,0.76134
241.57999999999998,0.76146
241.64,0.76158
241.7,0.7617
241.76,0.76182
241.82,0.7619400000000001
241.88,0.7620600000000001
241.94,0.7621800000000001
242.0,0.7623000000000001
242.06,0.7624200000000001
242.12,0.7625400000000001
242.18,0.7626600000000001
242.24,0.7627800000000001
242.3,0.7629000000000001
242.36,0.7630200000000001
242.42000000000002,0.7631400000000002
242.48,0.76326
242.54,0.7633800000000001
242.6,0.7635000000000001
242.66,0.7636200000000001
242.72,0.7637400000000001
242.78,0.7638600000000001
242.84,0.7639800000000001
242.9,0.7641000000000001
242.96,0.7642200000000001
243.01999999999998,0.7643380000000001
243.07999999999998,0.764452
243.14,0.7645660000000001
243.2,0.76468
243.26,0.7647940000000001
243.32,0.764908
243.38,0.7650220000000001
243.44,0.765136
243.5,0.76525
243.56,0.765364
243.62,0.765478
243.68,0.765592
243.74,0.765706
243.8,0.7658200000000001
243.86,0.765934
243.92000000000002,0.7660480000000001
243.98,0.766162
244.04,0.766276
244.1,0.76639
244.16,0.766504
244.22,0.766618
244.28,0.766732
244.34,0.766846
244.4,0.76696
244.46,0.767074
244.51999999999998,0.767188
244.57999999999998,0.7673019999999999
244.64,0.767416
244.7,0.7675299999999999
244.76,0.767644
244.82,0.7677579999999999
244.88,0.767872
244.94,0.767986
245.0,0.7681
245.06,0.7682140000000001
245.12,0.768328
245.18,0.7684420000000001
245.24,0.768556
245.3,0.7686700000000001
245.36,0.768784
245.42000000000002,0.7688980000000001
245.48,0.769012
245.54,0.769126
245.6,0.76924
245.66,0.769354
245.72,0.769468
245.78,0.769582
245.84,0.769696
245.9,0.76981
245.96,0.769924
246.01999999999998,0.770038
246.07999999999998,0.770152
246.14,0.770266
246.2,0.77038
246.26,0.770494
246.32,0.770608
246.38,0.770722
246.44,0.770836
246.5,0.77095
246.56,0.7710640000000001
246.62,0.771178
246.68,0.7712920000000001
246.74,0.771406
246.8,0.7715200000000001
246.86,0.771634
246.92000000000002,0.7717480000000001
246.98,0.771862
247.04,0.771972
247.1,0.77208
247.16,0.772188
247.22,0.772296
247.28,0.7724040000000001
247.34,0.7725120000000001
247.4,0.7726200000000001
247.46,0.7727280000000001
247.51999999999998,0.772836
247.57999999999998,0.772944
247.64,0.7730520000000001
247.7,0.7731600000000001
247.76,0.7732680000000001
247.82,0.7733760000000001
247.88,0.7734840000000001
247.94,0.7735920000000001
248.0,0.7737
248.06,0.773808
248.12,0.773916
248.18,0.774024
248.24,0.774132
248.3,0.77424
248.36,0.774348
248.42000000000002,0.774456
248.48,0.774564
248.54,0.774672
248.6,0.77478
248.66,0.774888
248.72,0.774996
248.78,0.775104
248.84,0.775212
248.9,0.77532
248.96,0.775428
249.01999999999998,0.775534
249.07999999999998,0.775636
249.14,0.7757379999999999
249.2,0.77584
249.26,0.7759419999999999
249.32,0.776044
249.38,0.776146
249.44,0.7762479999999999
249.5,0.77635
249.56,0.776452
249.62,0.776554
249.68,0.776656
249.74,0.7767580000000001
249.8,0.77686
249.86,0.776962
249.92000000000002,0.777064
249.98,0.777166
250.04,0.777268
250.1,0.77737
250.16,0.777472
250.22,0.777574
250.28,0.777676
250.34,0.777778
250.4,0.77788
250.46,0.7779820000000001
250.51999999999998,0.778084
250.57999999999998,0.778186
250.64,0.778288
250.7,0.77839
250.76,0.778492
250.82,0.778594
250.88,0.778696
250.94,0.778798
251.0,0.7789
251.06,0.7790020000000001
251.12,0.779104
251.18,0.7792060000000001
251.24,0.7793080000000001
251.3,0.77941
251.36,0.7795120000000001
251.42,0.779614
251.48,0.7797160000000001
251.54,0.779818
251.6,0.7799200000000001
251.66,0.7800220000000001
251.72,0.780124
251.78,0.7802260000000001
251.84,0.780328
251.9,0.7804300000000001
251.96,0.7805320000000001
252.01999999999998,0.780632
252.07999999999998,0.7807280000000001
252.14,0.7808240000000001
252.2,0.7809200000000001
252.26,0.781016
252.32,0.781112
252.38,0.781208
252.44,0.781304
252.5,0.7814000000000001
252.56,0.7814960000000001
252.62,0.7815920000000001
252.68,0.781688
252.74,0.781784
252.8,0.78188
252.86,0.781976
252.92,0.782072
252.98,0.782168
253.04,0.78226
253.1,0.78235
253.16,0.78244
253.22,0.7825300000000001
253.28,0.78262
253.34,0.78271
253.4,0.7828
253.46,0.7828900000000001
253.51999999999998,0.78298
253.57999999999998,0.78307
253.64,0.78316
253.7,0.78325
253.76,0.78334
253.82,0.7834300000000001
253.88,0.78352
253.94,0.78361
254.0,0.7837000000000001
254.06,0.783796
254.12,0.783892
254.18,0.783988
254.24,0.7840840000000001
254.3,0.7841800000000001
254.36,0.7842760000000001
254.42,0.7843720000000001
254.48,0.784468
254.54,0.784564
254.6,0.78466
254.66,0.784756
254.72,0.784852
254.78,0.784948
254.84,0.785044
254.9,0.7851400000000001
254.96,0.785236
255.01999999999998,0.785328
255.07999999999998,0.785412
255.14,0.785496
255.2,0.78558
255.26,0.785664
255.32,0.785748
255.38,0.785832
255.44,0.7859160000000001
255.5,0.786
255.56,0.786084
255.62,0.7861680000000001
255.68,0.7862520000000001
255.74,0.786336
255.8,0.7864200000000001
255.86,0.7865040000000001
255.92,0.7865880000000001
255.98,0.786672
256.04,0.7867600000000001
256.1,0.78685
256.15999999999997,0.78694
256.22,0.7870300000000001
256.28,0.7871199999999999
256.34,0.78721
256.4,0.7873
256.46,0.7873899999999999
256.52,0.78748
256.58,0.78757
256.64,0.7876599999999999
256.7,0.78775
256.76,0.7878399999999999
256.82,0.7879299999999999
256.88,0.7880199999999999
256.94,0.7881099999999999
257.0,0.7881999999999999
257.06,0.7882839999999999
257.12,0.788368
257.18,0.7884519999999999
257.24,0.7885359999999999
257.3,0.78862
257.36,0.788704
257.42,0.7887879999999999
257.48,0.7888719999999999
257.54,0.788956
257.6,0.78904
257.65999999999997,0.7891239999999999
257.72,0.789208
257.78,0.7892919999999999
257.84,0.789376
257.9,0.7894599999999999
257.96,0.7895439999999999
258.02,0.7896259999999999
258.08,0.789704
258.14,0.789782
258.2,0.78986
258.26,0.789938
258.32,0.7900159999999999
258.38,0.790094
258.44,0.790172
258.5,0.79025
258.56,0.790328
258.62,0.790406
258.68,0.7904840000000001
258.74,0.790562
258.8,0.79064
258.86,0.790718
258.92,0.790796
258.98,0.7908740000000001
259.04,0.7909520000000001
259.1,0.7910300000000001
259.15999999999997,0.791108
259.22,0.7911860000000001
259.28,0.791264
259.34,0.791342
259.4,0.79142
259.46,0.791498
259.52,0.7915760000000001
259.58,0.791654
259.64,0.791732
259.7,0.79181
259.76,0.791888
259.82,0.7919660000000001
259.88,0.792044
259.94,0.792122
260.0,0.7922
260.06,0.792272
260.12,0.792344
260.18,0.792416
260.24,0.792488
260.3,0.79256
260.36,0.792632
260.42,0.7927040000000001
260.48,0.792776
260.54,0.792848
260.6,0.7929200000000001
260.65999999999997,0.7929919999999999
260.72,0.793064
260.78,0.793136
260.84,0.7932079999999999
260.9,0.79328
260.96,0.793352
261.02,0.793424
261.08,0.793496
261.14,0.7935679999999999
261.2,0.79364
261.26,0.793712
261.32,0.7937839999999999
261.38,0.793856
261.44,0.793928
261.5,0.794
261.56,0.794072
261.62,0.794144
261.68,0.794216
261.74,0.794288
261.8,0.79436
261.86,0.794432
261.92,0.794504
261.98,0.794576
262.04,0.794648
262.1,0.79472
262.15999999999997,0.7947919999999999
262.22,0.794864
262.28,0.794936
