"SampleMN1198VSlowTrans - RawData"
"Wavelength nm.","T%"
190.00,1.15140
191.00,0.72265
192.00,0.63889
193.00,0.46543
194.00,0.31120
195.00,0.27730
196.00,0.18276
197.00,0.24376
198.00,0.24234
199.00,0.26241
200.00,0.18084
201.00,0.15678
202.00,0.13582
203.00,0.10541
204.00,0.12923
205.00,0.09996
206.00,0.07679
207.00,0.10562
208.00,0.09037
209.00,0.09774
210.00,0.07684
211.00,0.08687
212.00,0.06317
213.00,0.06940
214.00,0.05727
215.00,0.07002
216.00,0.06386
217.00,0.06696
218.00,0.06515
219.00,0.06844
220.00,0.06363
221.00,0.06514
222.00,0.06167
223.00,0.06796
224.00,0.06625
225.00,0.06198
226.00,0.06240
227.00,0.05119
228.00,0.05099
229.00,0.05311
230.00,0.04936
231.00,0.05486
232.00,0.04977
233.00,0.04681
234.00,0.04383
235.00,0.04426
236.00,0.04944
237.00,0.04432
238.00,0.04495
239.00,0.04212
240.00,0.05132
241.00,0.05088
242.00,0.06276
243.00,0.08131
244.00,0.10221
245.00,0.12372
246.00,0.16971
247.00,0.24287
248.00,0.34292
249.00,0.50598
250.00,0.72704
251.00,1.03211
252.00,1.45509
253.00,2.05073
254.00,2.77305
255.00,3.74030
256.00,4.87916
257.00,6.24619
258.00,7.82046
259.00,9.57918
260.00,11.45031
261.00,13.52892
262.00,15.78239
263.00,17.97204
264.00,20.19799
265.00,22.39079
266.00,24.59899
267.00,26.67645
268.00,28.70039
269.00,30.51189
270.00,32.27920
271.00,33.78446
272.00,35.17433
273.00,36.58869
274.00,37.68053
275.00,38.75563
276.00,39.61548
277.00,40.42965
278.00,41.24490
279.00,42.13309
280.00,42.69783
281.00,43.26337
282.00,43.75789
283.00,44.11181
284.00,44.70719
285.00,45.02066
286.00,45.48215
287.00,45.81368
288.00,46.11970
289.00,46.58448
290.00,46.92544
291.00,47.17522
292.00,47.56840
293.00,47.86950
294.00,48.09343
295.00,48.43208
296.00,48.59873
297.00,48.76316
298.00,48.96395
299.00,49.18065
300.00,49.41470
301.00,49.70402
302.00,49.91436
303.00,50.07532
304.00,50.33687
305.00,50.61907
306.00,50.54734
307.00,50.70207
308.00,50.92579
309.00,51.17961
310.00,51.24135
311.00,51.44322
312.00,51.56302
313.00,51.60528
314.00,51.78869
315.00,51.80848
316.00,51.98941
317.00,52.10557
318.00,52.34715
319.00,52.52327
320.00,52.59910
321.00,52.72627
322.00,52.91277
323.00,52.98401
324.00,52.78086
325.00,52.97175
326.00,53.12983
327.00,53.25159
328.00,53.32143
329.00,53.43777
330.00,53.43525
331.00,53.45690
332.00,53.52637
333.00,53.69195
334.00,53.48814
335.00,53.61487
336.00,53.66236
337.00,53.64523
338.00,53.64134
339.00,53.85066
340.00,53.91666
341.00,54.08696
342.00,54.22546
343.00,54.28599
344.00,54.44435
345.00,54.58001
346.00,54.73930
347.00,54.78374
348.00,54.95252
349.00,54.94454
350.00,54.97118
351.00,55.05230
352.00,54.99252
353.00,55.01301
354.00,54.95504
355.00,54.89628
356.00,54.89684
357.00,54.92144
358.00,54.84675
359.00,54.93709
360.00,54.91822
361.00,54.90068
362.00,55.01135
363.00,55.06887
364.00,55.05425
365.00,55.19130
366.00,55.34217
367.00,55.47960
368.00,55.51988
369.00,55.65135
370.00,55.74713
371.00,55.87317
372.00,55.97245
373.00,55.93915
374.00,56.09660
375.00,56.12117
376.00,56.09264
377.00,56.14300
378.00,55.99965
379.00,56.02278
380.00,56.02834
381.00,55.96977
382.00,55.95618
383.00,55.83190
384.00,55.81437
385.00,55.84174
386.00,55.77706
387.00,55.86526
388.00,55.77973
389.00,55.81689
390.00,55.86898
391.00,55.91626
392.00,56.02354
393.00,56.09102
394.00,56.16046
395.00,56.30523
396.00,56.32526
397.00,56.50832
398.00,56.57731
399.00,56.64852
400.00,56.77028
401.00,56.89577
402.00,56.94907
403.00,57.04113
404.00,57.05796
405.00,57.13882
406.00,57.13796
407.00,57.18117
408.00,57.15860
409.00,57.11814
410.00,57.07864
411.00,57.06832
412.00,56.98868
413.00,56.94705
414.00,56.93840
415.00,56.82449
416.00,56.75716
417.00,56.75215
418.00,56.70577
419.00,56.65374
420.00,56.64623
421.00,56.66280
422.00,56.61705
423.00,56.66196
424.00,56.75445
425.00,56.77192
426.00,56.81693
427.00,56.91079
428.00,56.93953
429.00,57.06263
430.00,57.14645
431.00,57.23997
432.00,57.36692
433.00,57.44890
434.00,57.61464
435.00,57.68598
436.00,57.72821
437.00,57.83582
438.00,57.92444
439.00,58.02414
440.00,58.04790
441.00,58.11308
442.00,58.13148
443.00,58.16720
444.00,58.16970
445.00,58.17943
446.00,58.16892
447.00,58.13097
448.00,58.10676
449.00,58.06577
450.00,58.00518
451.00,57.91532
452.00,57.88375
453.00,57.81999
454.00,57.77789
455.00,57.74888
456.00,57.66152
457.00,57.60711
458.00,57.52501
459.00,57.49785
460.00,57.47504
461.00,57.43501
462.00,57.45974
463.00,57.43903
464.00,57.44109
465.00,57.53846
466.00,57.49162
467.00,57.50847
468.00,57.61277
469.00,57.67359
470.00,57.75768
471.00,57.80997
472.00,57.91788
473.00,57.97353
474.00,58.02468
475.00,58.17109
476.00,58.28581
477.00,58.36144
478.00,58.47973
479.00,58.59129
480.00,58.70449
481.00,58.79056
482.00,58.84652
483.00,58.97192
484.00,59.00629
485.00,59.08348
486.00,59.12916
487.00,59.19551
488.00,59.18213
489.00,59.20487
490.00,59.21273
491.00,59.22744
492.00,59.21510
493.00,59.20718
494.00,59.17202
495.00,59.15614
496.00,59.12502
497.00,59.06465
498.00,59.02193
499.00,58.95078
500.00,58.89387
501.00,58.84574
502.00,58.77901
503.00,58.73042
504.00,58.67528
505.00,58.56026
506.00,58.54232
507.00,58.44234
508.00,58.43998
509.00,58.39214
510.00,58.32967
511.00,58.31959
512.00,58.25408
513.00,58.24477
514.00,58.23690
515.00,58.27482
516.00,58.27397
517.00,58.31648
518.00,58.33787
519.00,58.37609
520.00,58.40075
521.00,58.48320
522.00,58.49691
523.00,58.59603
524.00,58.66195
525.00,58.72644
526.00,58.80698
527.00,58.92312
528.00,59.01916
529.00,59.11630
530.00,59.18367
531.00,59.26500
532.00,59.39696
533.00,59.49547
534.00,59.60189
535.00,59.65497
536.00,59.79040
537.00,59.91430
538.00,59.97382
539.00,60.08663
540.00,60.15651
541.00,60.22701
542.00,60.27350
543.00,60.32468
544.00,60.33686
545.00,60.43248
546.00,60.45806
547.00,60.45468
548.00,60.44584
549.00,60.48635
550.00,60.53011
551.00,60.49135
552.00,60.43501
553.00,60.43774
554.00,60.40967
555.00,60.39027
556.00,60.32454
557.00,60.29137
558.00,60.24635
559.00,60.19448
560.00,60.12543
561.00,60.09527
562.00,60.01593
563.00,59.94755
564.00,59.89750
565.00,59.82382
566.00,59.75537
567.00,59.70688
568.00,59.62343
569.00,59.60993
570.00,59.52559
571.00,59.49048
572.00,59.43908
573.00,59.40630
574.00,59.33781
575.00,59.30196
576.00,59.30465
577.00,59.25564
578.00,59.25564
579.00,59.23547
580.00,59.25339
581.00,59.24528
582.00,59.25061
583.00,59.27666
584.00,59.30088
585.00,59.32782
586.00,59.35729
587.00,59.38089
588.00,59.41986
589.00,59.48111
590.00,59.55367
591.00,59.59272
592.00,59.66938
593.00,59.71712
594.00,59.75142
595.00,59.87285
596.00,59.97319
597.00,60.02445
598.00,60.12942
599.00,60.22326
600.00,60.34309
601.00,60.40541
602.00,60.49191
603.00,60.58375
604.00,60.63229
605.00,60.72903
606.00,60.84166
607.00,60.90330
608.00,61.00329
609.00,61.07733
610.00,61.16791
611.00,61.24840
612.00,61.29517
613.00,61.37319
614.00,61.42890
615.00,61.49870
616.00,61.56135
617.00,61.59258
618.00,61.61153
619.00,61.68826
620.00,61.69345
621.00,61.73934
622.00,61.78537
623.00,61.74875
624.00,61.79476
625.00,61.77620
626.00,61.78247
627.00,61.78511
628.00,61.80701
629.00,61.76395
630.00,61.78593
631.00,61.71211
632.00,61.69208
633.00,61.69828
634.00,61.67107
635.00,61.60610
636.00,61.52741
637.00,61.50745
638.00,61.46083
639.00,61.42898
640.00,61.37761
641.00,61.31270
642.00,61.25864
643.00,61.18758
644.00,61.12233
645.00,61.04652
646.00,61.01516
647.00,60.96283
648.00,60.90454
649.00,60.79526
650.00,60.77611
651.00,60.74598
652.00,60.67061
653.00,60.65403
654.00,60.63897
655.00,60.50965
656.00,60.52631
657.00,60.49113
658.00,60.44458
659.00,60.41666
660.00,60.36544
661.00,60.37884
662.00,60.35469
663.00,60.33387
664.00,60.31132
665.00,60.32363
666.00,60.30386
667.00,60.26685
668.00,60.36029
669.00,60.34296
670.00,60.35160
671.00,60.33597
672.00,60.42082
673.00,60.41536
674.00,60.43639
675.00,60.48400
676.00,60.48114
677.00,60.56110
678.00,60.61703
679.00,60.63262
680.00,60.66605
681.00,60.75765
682.00,60.80100
683.00,60.86605
684.00,60.96821
685.00,61.00100
686.00,61.03801
687.00,61.17493
688.00,61.23004
689.00,61.30223
690.00,61.35721
691.00,61.40237
692.00,61.53873
693.00,61.65567
694.00,61.73440
695.00,61.79519
696.00,61.81582
697.00,61.92097
698.00,62.01463
699.00,62.10865
700.00,62.15512
701.00,62.18545
702.00,62.32843
703.00,62.40814
704.00,62.45058
705.00,62.50307
706.00,62.66290
707.00,62.68759
708.00,62.76448
709.00,62.73115
710.00,62.87900
711.00,62.96075
712.00,63.03158
713.00,63.01478
714.00,63.07162
715.00,63.12789
716.00,63.20407
717.00,63.22836
718.00,63.21543
719.00,63.29332
720.00,63.26820
721.00,63.24699
722.00,63.37883
723.00,63.27823
724.00,63.33801
725.00,63.37958
726.00,63.40601
727.00,63.35257
728.00,63.41037
729.00,63.42505
730.00,63.38493
731.00,63.36756
732.00,63.41814
733.00,63.31769
734.00,63.36549
735.00,63.28858
736.00,63.30574
737.00,63.25915
738.00,63.24149
739.00,63.18502
740.00,63.12263
741.00,63.15048
742.00,63.23430
743.00,63.09016
744.00,63.06515
745.00,62.96827
746.00,62.88246
747.00,62.83594
748.00,62.78533
749.00,62.82339
750.00,62.72469
751.00,62.64127
752.00,62.58810
753.00,62.47338
754.00,62.54206
755.00,62.46664
756.00,62.43941
757.00,62.33401
758.00,62.38964
759.00,62.30068
760.00,62.22640
761.00,62.09549
762.00,62.06732
763.00,61.89176
764.00,61.84009
765.00,61.92994
766.00,61.80923
767.00,61.86211
768.00,61.83059
769.00,61.67780
770.00,61.71044
771.00,61.65655
772.00,61.70520
773.00,61.49967
774.00,61.59244
775.00,61.53100
776.00,61.46328
777.00,61.57882
778.00,61.45260
779.00,61.48359
780.00,61.55679
781.00,61.58350
782.00,61.53325
783.00,61.42320
784.00,61.47379
785.00,61.48277
786.00,61.41275
787.00,61.39657
788.00,61.43383
789.00,61.56771
790.00,61.54918
791.00,61.35394
792.00,61.58031
793.00,61.68679
794.00,61.53435
795.00,61.61894
796.00,61.72948
797.00,61.62318
798.00,61.74204
799.00,61.72971
800.00,61.80548
801.00,61.88326
802.00,61.89854
803.00,61.87061
804.00,62.04462
805.00,61.92039
806.00,61.90996
807.00,62.21154
808.00,62.16460
809.00,62.16384
810.00,62.34214
811.00,62.29126
812.00,62.31565
813.00,62.54586
814.00,62.46830
815.00,62.55979
816.00,62.81600
817.00,62.61491
818.00,62.80618
819.00,62.78031
820.00,63.02859
821.00,62.94089
822.00,62.82108
823.00,63.18542
824.00,63.31786
825.00,63.15207
826.00,63.27372
827.00,63.32134
828.00,63.33021
829.00,63.42343
830.00,63.57642
831.00,63.70834
832.00,63.46659
833.00,63.80526
834.00,63.90597
835.00,63.76734
836.00,63.97026
837.00,64.05816
838.00,63.83101
839.00,64.04976
840.00,64.38361
841.00,63.98400
842.00,64.46245
843.00,64.69655
844.00,64.74457
845.00,64.44819
846.00,64.72372
847.00,64.61095
848.00,64.49309
849.00,64.55279
850.00,64.49876
851.00,64.87322
852.00,65.36625
853.00,64.94715
854.00,64.97562
855.00,65.08407
856.00,64.30038
857.00,64.80969
858.00,64.76868
859.00,65.88032
860.00,64.04421
861.00,63.76425
862.00,64.55539
863.00,64.43931
864.00,64.47241
865.00,64.58893
866.00,65.27364
867.00,64.93034
868.00,65.28039
869.00,64.34687
870.00,66.31334
871.00,65.31856
872.00,65.65487
873.00,62.96739
874.00,65.72911
875.00,66.52192
876.00,65.63199
877.00,62.65427
878.00,64.17334
879.00,62.76461
880.00,66.14622
881.00,63.98594
882.00,63.77490
883.00,64.08680
884.00,66.13582
885.00,61.98549
886.00,65.94061
887.00,61.54293
888.00,66.96171
889.00,67.45533
890.00,61.32649
891.00,66.45362
892.00,65.32636
893.00,63.84873
894.00,62.89234
895.00,65.44548
896.00,63.76176
897.00,63.18055
898.00,66.67074
899.00,65.10890
900.00,65.72986
