"TransmitSubstrateVSlow070622 - RawData"
"Wavelength nm.","T%"
190.00,56.89325
191.00,54.74098
192.00,53.45291
193.00,53.38087
194.00,51.38130
195.00,51.09953
196.00,50.52111
197.00,50.75369
198.00,50.35066
199.00,50.65874
200.00,50.72160
201.00,51.01289
202.00,51.34659
203.00,51.85301
204.00,52.18292
205.00,52.84784
206.00,52.76945
207.00,53.28653
208.00,53.52017
209.00,53.81190
210.00,53.85664
211.00,53.84513
212.00,54.07475
213.00,54.09120
214.00,54.43006
215.00,54.16360
216.00,54.11089
217.00,53.90296
218.00,53.87661
219.00,53.92805
220.00,54.08691
221.00,53.90249
222.00,53.88360
223.00,54.04724
224.00,54.00198
225.00,54.07788
226.00,54.11335
227.00,54.24138
228.00,54.31314
229.00,54.39935
230.00,54.50326
231.00,54.73218
232.00,54.87603
233.00,54.95939
234.00,55.13616
235.00,55.27731
236.00,55.57131
237.00,55.84627
238.00,55.86772
239.00,56.04971
240.00,56.34299
241.00,56.49815
242.00,56.66943
243.00,56.89504
244.00,57.14139
245.00,57.22849
246.00,57.40874
247.00,57.46649
248.00,57.76693
249.00,57.87781
250.00,58.05722
251.00,58.17479
252.00,58.25101
253.00,58.35087
254.00,58.55908
255.00,58.58980
256.00,58.60324
257.00,58.77221
258.00,58.83074
259.00,58.79241
260.00,58.79357
261.00,58.86718
262.00,58.95878
263.00,59.00668
264.00,59.07369
265.00,58.97603
266.00,59.01561
267.00,59.01993
268.00,59.02925
269.00,59.06314
270.00,59.09941
271.00,59.18301
272.00,59.18928
273.00,59.13764
274.00,59.18689
275.00,59.25940
276.00,59.27145
277.00,59.30089
278.00,59.34571
279.00,59.37790
280.00,59.43665
281.00,59.53561
282.00,59.55428
283.00,59.57393
284.00,59.72317
285.00,59.87179
286.00,59.94754
287.00,59.94179
288.00,60.04727
289.00,60.20553
290.00,60.23661
291.00,60.31901
292.00,60.44098
293.00,60.56725
294.00,60.65216
295.00,60.64562
296.00,60.69722
297.00,60.82143
298.00,60.82632
299.00,60.92120
300.00,61.07322
301.00,61.09421
302.00,61.02196
303.00,61.23405
304.00,61.16009
305.00,61.23911
306.00,61.26279
307.00,61.34400
308.00,61.35907
309.00,61.40887
310.00,61.35797
311.00,61.46133
312.00,61.53957
313.00,61.63503
314.00,61.67360
315.00,61.72220
316.00,61.64652
317.00,61.75032
318.00,61.80361
319.00,61.76915
320.00,61.87153
321.00,61.91339
322.00,61.97024
323.00,61.90569
324.00,61.94760
325.00,61.99307
326.00,62.02797
327.00,62.00565
328.00,62.09826
329.00,62.08977
330.00,62.10335
331.00,62.17193
332.00,62.10961
333.00,62.15634
334.00,62.15159
335.00,62.21291
336.00,62.28746
337.00,62.31677
338.00,62.34467
339.00,62.33994
340.00,62.36201
341.00,62.46835
342.00,62.41244
343.00,62.48794
344.00,62.44285
345.00,62.46498
346.00,62.54964
347.00,62.57077
348.00,62.54517
349.00,62.58918
350.00,62.55101
351.00,62.60769
352.00,62.65714
353.00,62.63074
354.00,62.71510
355.00,62.77919
356.00,62.72854
357.00,62.76835
358.00,62.73754
359.00,62.81004
360.00,62.85393
361.00,62.83399
362.00,62.85699
363.00,62.87524
364.00,62.88194
365.00,62.88698
366.00,62.90563
367.00,62.89337
368.00,62.96628
369.00,62.94686
370.00,62.97544
371.00,62.97879
372.00,63.05472
373.00,63.08640
374.00,63.01920
375.00,63.05401
376.00,63.10122
377.00,63.12493
378.00,63.09471
379.00,63.11866
380.00,63.18637
381.00,63.17960
382.00,63.21147
383.00,63.14721
384.00,63.18747
385.00,63.28248
386.00,63.24043
387.00,63.27302
388.00,63.25926
389.00,63.27249
390.00,63.32635
391.00,63.35046
392.00,63.33790
393.00,63.34928
394.00,63.38010
395.00,63.39730
396.00,63.39975
397.00,63.45139
398.00,63.46532
399.00,63.47729
400.00,63.51548
401.00,63.48373
402.00,63.51927
403.00,63.50621
404.00,63.54012
405.00,63.56647
406.00,63.56813
407.00,63.58253
408.00,63.59305
409.00,63.61396
410.00,63.64800
411.00,63.65932
412.00,63.67977
413.00,63.70409
414.00,63.71084
415.00,63.73923
416.00,63.75580
417.00,63.77099
418.00,63.78703
419.00,63.79886
420.00,63.86175
421.00,63.81562
422.00,63.84798
423.00,63.89134
424.00,63.87238
425.00,63.90736
426.00,63.90633
427.00,63.91500
428.00,63.91565
429.00,63.94733
430.00,63.98922
431.00,63.97647
432.00,63.97256
433.00,63.98926
434.00,64.01575
435.00,64.03621
436.00,64.03393
437.00,64.04410
438.00,64.08215
439.00,64.09553
440.00,64.07841
441.00,64.08886
442.00,64.11093
443.00,64.12180
444.00,64.14503
445.00,64.15671
446.00,64.17351
447.00,64.19012
448.00,64.20000
449.00,64.22057
450.00,64.22776
451.00,64.26243
452.00,64.25658
453.00,64.26409
454.00,64.27651
455.00,64.29466
456.00,64.31752
457.00,64.30109
458.00,64.33497
459.00,64.37212
460.00,64.36667
461.00,64.38233
462.00,64.38634
463.00,64.41489
464.00,64.41162
465.00,64.43238
466.00,64.43747
467.00,64.45029
468.00,64.47962
469.00,64.46221
470.00,64.50027
471.00,64.50823
472.00,64.52474
473.00,64.53700
474.00,64.52727
475.00,64.56110
476.00,64.58361
477.00,64.58488
478.00,64.59441
479.00,64.60296
480.00,64.62651
481.00,64.62181
482.00,64.64686
483.00,64.65832
484.00,64.63315
485.00,64.69029
486.00,64.67680
487.00,64.70835
488.00,64.72788
489.00,64.74405
490.00,64.73591
491.00,64.75028
492.00,64.76077
493.00,64.80661
494.00,64.77481
495.00,64.81729
496.00,64.83940
497.00,64.83719
498.00,64.83155
499.00,64.88216
500.00,64.90158
501.00,64.86900
502.00,64.91438
503.00,64.91223
504.00,64.93274
505.00,64.93728
506.00,64.95310
507.00,64.98869
508.00,64.97962
509.00,64.99197
510.00,65.01492
511.00,65.03679
512.00,65.03742
513.00,65.04231
514.00,65.06498
515.00,65.07709
516.00,65.08155
517.00,65.11099
518.00,65.10596
519.00,65.10507
520.00,65.14307
521.00,65.14996
522.00,65.16078
523.00,65.17460
524.00,65.17450
525.00,65.19791
526.00,65.23257
527.00,65.23517
528.00,65.28102
529.00,65.24767
530.00,65.22975
531.00,65.27610
532.00,65.25661
533.00,65.30685
534.00,65.34118
535.00,65.32990
536.00,65.35046
537.00,65.34073
538.00,65.37105
539.00,65.35825
540.00,65.35386
541.00,65.39323
542.00,65.39442
543.00,65.42532
544.00,65.40702
545.00,65.46158
546.00,65.46665
547.00,65.47596
548.00,65.49103
549.00,65.48824
550.00,65.49738
551.00,65.54909
552.00,65.54707
553.00,65.56000
554.00,65.55459
555.00,65.58659
556.00,65.58692
557.00,65.59805
558.00,65.60906
559.00,65.61792
560.00,65.65483
561.00,65.64884
562.00,65.68726
563.00,65.67326
564.00,65.68325
565.00,65.72407
566.00,65.69009
567.00,65.70934
568.00,65.72467
569.00,65.76070
570.00,65.74374
571.00,65.77407
572.00,65.77324
573.00,65.78988
574.00,65.80607
575.00,65.84165
576.00,65.82240
577.00,65.80212
578.00,65.87483
579.00,65.87263
580.00,65.88008
581.00,65.88781
582.00,65.89068
583.00,65.91967
584.00,65.89273
585.00,65.93413
586.00,65.96976
587.00,65.95230
588.00,65.96846
589.00,65.99364
590.00,65.98593
591.00,65.99533
592.00,66.02370
593.00,66.02941
594.00,66.04921
595.00,66.08297
596.00,66.06386
597.00,66.10974
598.00,66.10473
599.00,66.14189
600.00,66.14085
601.00,66.14131
602.00,66.11980
603.00,66.16744
604.00,66.18640
605.00,66.18720
606.00,66.20372
607.00,66.18730
608.00,66.22205
609.00,66.25912
610.00,66.24829
611.00,66.26049
612.00,66.25502
613.00,66.29033
614.00,66.28612
615.00,66.31541
616.00,66.32029
617.00,66.33580
618.00,66.37794
619.00,66.32800
620.00,66.35309
621.00,66.39538
622.00,66.39186
623.00,66.41223
624.00,66.42451
625.00,66.43088
626.00,66.43257
627.00,66.43769
628.00,66.47716
629.00,66.48744
630.00,66.48648
631.00,66.51290
632.00,66.54648
633.00,66.54024
634.00,66.55910
635.00,66.57130
636.00,66.58108
637.00,66.57835
638.00,66.58809
639.00,66.63097
640.00,66.64174
641.00,66.61203
642.00,66.63799
643.00,66.67325
644.00,66.70893
645.00,66.68829
646.00,66.67669
647.00,66.72618
648.00,66.70237
649.00,66.73735
650.00,66.78115
651.00,66.73998
652.00,66.80483
653.00,66.76913
654.00,66.81736
655.00,66.83686
656.00,66.82997
657.00,66.80933
658.00,66.87800
659.00,66.88396
660.00,66.86814
661.00,66.89541
662.00,66.87707
663.00,66.94259
664.00,66.94300
665.00,66.96413
666.00,66.98434
667.00,66.96171
668.00,66.99896
669.00,67.02483
670.00,66.99872
671.00,67.01218
672.00,67.01353
673.00,67.06162
674.00,67.05347
675.00,67.04794
676.00,67.09225
677.00,67.10485
678.00,67.11866
679.00,67.12282
680.00,67.12732
681.00,67.13877
682.00,67.13039
683.00,67.15984
684.00,67.19427
685.00,67.19021
686.00,67.17391
687.00,67.18969
688.00,67.24562
689.00,67.25436
690.00,67.25580
691.00,67.28161
692.00,67.28696
693.00,67.25345
694.00,67.28887
695.00,67.34169
696.00,67.28011
697.00,67.37679
698.00,67.32185
699.00,67.37459
700.00,67.42494
701.00,67.40117
702.00,67.41178
703.00,67.40118
704.00,67.44940
705.00,67.43752
706.00,67.40326
707.00,67.45541
708.00,67.45853
709.00,67.48422
710.00,67.55825
711.00,67.43816
712.00,67.52849
713.00,67.53431
714.00,67.58566
715.00,67.54988
716.00,67.64616
717.00,67.62872
718.00,67.62073
719.00,67.59933
720.00,67.63985
721.00,67.68082
722.00,67.63211
723.00,67.67431
724.00,67.71604
725.00,67.75191
726.00,67.69609
727.00,67.66140
728.00,67.72480
729.00,67.83516
730.00,67.72027
731.00,67.76096
732.00,67.84094
733.00,67.79322
734.00,67.79178
735.00,67.81742
736.00,67.91732
737.00,67.85361
738.00,67.86379
739.00,67.84839
740.00,67.83111
741.00,67.87148
742.00,67.93190
743.00,67.93662
744.00,67.85829
745.00,67.95338
746.00,68.02251
747.00,67.89804
748.00,67.98682
749.00,67.99700
750.00,68.02354
751.00,68.01156
752.00,68.08546
753.00,68.13625
754.00,68.00891
755.00,68.00234
756.00,68.08286
757.00,68.11110
758.00,68.01810
759.00,68.10133
760.00,68.15174
761.00,68.13617
762.00,68.19581
763.00,68.29364
764.00,68.17090
765.00,68.20337
766.00,68.28145
767.00,68.12370
768.00,68.24749
769.00,68.28539
770.00,68.20474
771.00,68.29001
772.00,68.29603
773.00,68.27238
774.00,68.25853
775.00,68.27689
776.00,68.26735
777.00,68.28381
778.00,68.37732
779.00,68.30439
780.00,68.43405
781.00,68.39664
782.00,68.36608
783.00,68.41204
784.00,68.32117
785.00,68.42086
786.00,68.39471
787.00,68.42370
788.00,68.49735
789.00,68.49654
790.00,68.39846
791.00,68.35782
792.00,68.43005
793.00,68.60934
794.00,68.50855
795.00,68.49610
796.00,68.57688
797.00,68.53823
798.00,68.50379
799.00,68.56934
800.00,68.58623
801.00,68.58417
802.00,68.61329
803.00,68.59598
804.00,68.68284
805.00,68.58838
806.00,68.60213
807.00,68.59764
808.00,68.67655
809.00,68.59705
810.00,68.59400
811.00,68.69144
812.00,68.77323
813.00,68.77693
814.00,68.70714
815.00,68.77859
816.00,68.69614
817.00,68.57051
818.00,68.64442
819.00,68.77644
820.00,68.80795
821.00,68.64436
822.00,68.68769
823.00,68.85883
824.00,68.75303
825.00,68.53896
826.00,68.84596
827.00,68.81393
828.00,68.76610
829.00,68.82569
830.00,68.77573
831.00,69.04022
832.00,68.90219
833.00,68.79520
834.00,68.81997
835.00,68.98960
836.00,69.00236
837.00,68.73656
838.00,68.98611
839.00,68.81115
840.00,68.92848
841.00,68.95868
842.00,69.08846
843.00,69.11352
844.00,69.29722
845.00,69.03769
846.00,69.07024
847.00,69.03622
848.00,69.31033
849.00,68.98820
850.00,68.70291
851.00,69.70754
852.00,69.72585
853.00,69.57779
854.00,69.27157
855.00,68.66515
856.00,69.28820
857.00,68.84924
858.00,69.47802
859.00,68.71784
860.00,69.39394
861.00,69.45568
862.00,68.67266
863.00,68.95567
864.00,69.58814
865.00,69.64288
866.00,69.12125
867.00,69.45234
868.00,68.63445
869.00,68.77913
870.00,69.78500
871.00,69.26018
872.00,69.03448
873.00,69.32815
874.00,69.22343
875.00,69.92708
876.00,68.53194
877.00,70.22541
878.00,69.47398
879.00,68.87099
880.00,70.82940
881.00,71.44533
882.00,67.57542
883.00,71.37950
884.00,69.69812
885.00,67.02053
886.00,71.02847
887.00,68.76900
888.00,72.21949
889.00,67.50834
890.00,69.39287
891.00,67.71499
892.00,71.92426
893.00,70.99580
894.00,71.37030
895.00,71.37635
896.00,68.93399
897.00,70.51833
898.00,70.35848
899.00,67.30466
900.00,70.95653
