"Resin DP Sapphire Slow 3 - RawData"
"Wavelength nm.","T%"
200.00,76.34977
200.20,76.40653
200.40,76.81781
200.60,77.06676
200.80,77.47296
201.00,77.95449
201.20,78.04898
201.40,77.88072
201.60,77.49748
201.80,77.91141
202.00,78.07338
202.20,78.46932
202.40,78.19352
202.60,79.12679
202.80,78.97993
203.00,78.73497
203.20,78.97705
203.40,79.42995
203.60,79.07566
203.80,79.46958
204.00,79.42289
204.20,78.97961
204.40,79.36040
204.60,79.68943
204.80,79.51399
205.00,80.45587
205.20,80.57057
205.40,80.81926
205.60,80.39174
205.80,80.18574
206.00,80.10704
206.20,80.14262
206.40,80.33249
206.60,80.69468
206.80,81.22923
207.00,81.22961
207.20,81.10562
207.40,80.35658
207.60,80.57085
207.80,80.60689
208.00,80.25538
208.20,80.36758
208.40,80.46342
208.60,80.25459
208.80,79.90401
209.00,79.83285
209.20,80.26956
209.40,80.59343
209.60,80.40401
209.80,80.96840
210.00,81.24368
210.20,80.78178
210.40,80.61377
210.60,80.94850
210.80,80.73709
211.00,80.87913
211.20,81.51512
211.40,81.78111
211.60,81.79094
211.80,81.73212
212.00,81.52251
212.20,81.08628
212.40,80.76583
212.60,80.96064
212.80,81.03664
213.00,81.38584
213.20,81.67031
213.40,81.95659
213.60,81.68281
213.80,81.63707
214.00,81.49589
214.20,81.38414
214.40,81.24883
214.60,81.62302
214.80,81.65087
215.00,81.49861
215.20,81.70537
215.40,81.74005
215.60,81.38133
215.80,81.51461
216.00,81.70175
216.20,81.48847
216.40,81.55297
216.60,81.62281
216.80,81.39382
217.00,81.19918
217.20,81.30184
217.40,81.03674
217.60,81.06403
217.80,81.24039
218.00,81.49575
218.20,81.46785
218.40,81.78782
218.60,82.00049
218.80,81.94306
219.00,81.98636
219.20,81.95145
219.40,81.97489
219.60,81.87187
219.80,81.83434
220.00,81.70673
220.20,82.04749
220.40,81.95869
220.60,81.96120
220.80,82.09803
221.00,82.07613
221.20,81.88362
221.40,82.02766
221.60,82.30986
221.80,82.38512
222.00,82.34865
222.20,82.51328
222.40,82.51029
222.60,82.33871
222.80,82.34089
223.00,82.49574
223.20,82.23979
223.40,82.11957
223.60,82.17470
223.80,82.01662
224.00,82.05406
224.20,82.27209
224.40,82.31236
224.60,82.26435
224.80,82.31419
225.00,82.31394
225.20,82.21442
225.40,82.24498
225.60,82.39229
225.80,82.62999
226.00,82.80700
226.20,82.78345
226.40,82.83222
226.60,82.69742
226.80,82.60319
227.00,82.40435
227.20,82.59146
227.40,82.69101
227.60,82.83974
227.80,82.91824
228.00,83.10684
228.20,82.86592
228.40,82.89701
228.60,82.74089
228.80,82.84023
229.00,82.71337
229.20,82.79580
229.40,82.91751
229.60,82.92300
229.80,82.92958
230.00,83.04323
230.20,83.25676
230.40,83.09312
230.60,83.24868
230.80,83.25795
231.00,83.31316
231.20,83.39481
231.40,83.43147
231.60,83.40803
231.80,83.31008
232.00,83.34572
232.20,83.24785
232.40,83.35185
232.60,83.38100
232.80,83.45906
233.00,83.35392
233.20,83.53173
233.40,83.57589
233.60,83.59492
233.80,83.70141
234.00,83.85250
234.20,83.82776
234.40,84.02806
234.60,84.08189
234.80,84.14239
235.00,84.12272
235.20,84.14601
235.40,83.91194
235.60,84.01015
235.80,83.80623
236.00,83.92271
236.20,83.86223
236.40,83.83873
236.60,83.67366
236.80,83.82592
237.00,83.67040
237.20,83.78307
237.40,83.93674
237.60,83.98162
237.80,84.00069
238.00,84.03357
238.20,84.08999
238.40,84.07249
238.60,84.01244
238.80,83.99407
239.00,83.99757
239.20,83.96964
239.40,83.94241
239.60,84.08763
239.80,84.11222
240.00,84.12516
240.20,84.06649
240.40,84.06413
240.60,83.94106
240.80,83.96719
241.00,84.11149
241.20,84.13242
241.40,84.14884
241.60,84.13745
241.80,84.06782
242.00,83.98061
242.20,84.01012
242.40,83.97405
242.60,84.15825
242.80,84.31822
243.00,84.32988
243.20,84.22743
243.40,84.26277
243.60,84.18438
243.80,84.09187
244.00,84.09424
244.20,84.18475
244.40,84.15861
244.60,84.28546
244.80,84.30685
245.00,84.34560
245.20,84.38983
245.40,84.47340
245.60,84.45839
245.80,84.45857
246.00,84.48179
246.20,84.39291
246.40,84.42451
246.60,84.49037
246.80,84.49715
247.00,84.42433
247.20,84.49791
247.40,84.55557
247.60,84.33879
247.80,84.33546
248.00,84.45852
248.20,84.37382
248.40,84.33739
248.60,84.51816
248.80,84.54320
249.00,84.54086
249.20,84.69066
249.40,84.65822
249.60,84.54841
249.80,84.50984
250.00,84.48098
250.20,84.32585
250.40,84.36716
250.60,84.47422
250.80,84.58031
251.00,84.50590
251.20,84.62724
251.40,84.63638
251.60,84.65505
251.80,84.61183
252.00,84.66481
252.20,84.73015
252.40,84.77020
252.60,84.70232
252.80,84.67806
253.00,84.66209
253.20,84.50878
253.40,84.45801
253.60,84.51291
253.80,84.54124
254.00,84.56751
254.20,84.70601
254.40,84.67984
254.60,84.65524
254.80,84.60658
255.00,84.60792
255.20,84.65227
255.40,84.69697
255.60,84.85287
255.80,84.84419
256.00,84.78854
256.20,84.65276
256.40,84.62495
256.60,84.50199
256.80,84.39953
257.00,84.37738
257.20,84.38156
257.40,84.41651
257.60,84.30122
257.80,84.46606
258.00,84.56078
258.20,84.65544
258.40,84.58122
258.60,84.66446
258.80,84.65252
259.00,84.64220
259.20,84.63774
259.40,84.69770
259.60,84.71003
259.80,84.72340
260.00,84.74543
260.20,84.72921
260.40,84.75081
260.60,84.70080
260.80,84.68321
261.00,84.69570
261.20,84.73003
261.40,84.72313
261.60,84.76059
261.80,84.73960
262.00,84.75282
262.20,84.67323
262.40,84.63898
262.60,84.67523
262.80,84.66575
263.00,84.63802
263.20,84.67759
263.40,84.68991
263.60,84.73693
263.80,84.83579
264.00,84.92230
264.20,84.79412
264.40,84.77833
264.60,84.72698
264.80,84.70873
265.00,84.62530
265.20,84.72939
265.40,84.83630
265.60,84.78892
265.80,84.82786
266.00,84.77830
266.20,84.70017
266.40,84.66660
266.60,84.70535
266.80,84.67872
267.00,84.71465
267.20,84.84279
267.40,84.83980
267.60,84.88833
267.80,84.89606
268.00,84.99550
268.20,84.99953
268.40,85.01449
268.60,84.96724
268.80,84.93832
269.00,84.87107
269.20,84.87554
269.40,84.86336
269.60,84.85489
269.80,84.88161
270.00,84.92867
270.20,84.85979
270.40,84.89465
270.60,84.90437
270.80,84.89333
271.00,84.87093
271.20,84.92269
271.40,84.98208
271.60,85.05380
271.80,84.98390
272.00,84.98195
272.20,85.00682
272.40,84.94915
272.60,84.96721
272.80,85.11512
273.00,85.05263
273.20,85.04139
273.40,84.99359
273.60,84.98952
273.80,84.91952
274.00,84.92846
274.20,84.92854
274.40,85.04320
274.60,85.00038
274.80,84.96734
275.00,84.98209
275.20,84.92352
275.40,84.74342
275.60,84.78509
275.80,84.78543
276.00,84.85959
276.20,84.93026
276.40,85.11235
276.60,85.10992
276.80,85.16186
277.00,85.15645
277.20,85.20687
277.40,85.08840
277.60,85.03228
277.80,85.10045
278.00,85.09902
278.20,85.02483
278.40,85.02401
278.60,85.11106
278.80,85.15041
279.00,85.11655
279.20,85.10213
279.40,85.18143
279.60,85.14618
279.80,85.08488
280.00,85.01091
280.20,84.91887
280.40,84.87417
280.60,84.86075
280.80,84.80715
281.00,84.94751
281.20,85.04115
281.40,85.05446
281.60,85.04157
281.80,84.97140
282.00,84.93323
282.20,84.94501
282.40,84.88560
282.60,84.88478
282.80,84.89961
283.00,84.85216
283.20,84.87915
283.40,84.93524
283.60,84.96155
283.80,85.07462
284.00,85.16186
284.20,85.15470
284.40,85.10317
284.60,85.11752
284.80,85.15309
285.00,85.15061
285.20,85.23644
285.40,85.14211
285.60,85.12544
285.80,85.01692
286.00,85.02516
286.20,84.94641
286.40,85.13353
286.60,85.16353
286.80,85.25130
287.00,85.22646
287.20,85.18674
287.40,85.11344
287.60,85.06265
287.80,85.05939
288.00,85.03409
288.20,85.08818
288.40,85.15345
288.60,85.13529
288.80,85.06522
289.00,85.07963
289.20,85.03554
289.40,85.01571
289.60,85.01915
289.80,85.00914
290.00,84.98855
290.20,85.07881
290.40,85.19010
290.60,85.25439
290.80,85.32533
291.00,85.41477
291.20,85.36615
291.40,85.14194
291.60,85.12594
291.80,85.21639
292.00,85.15596
292.20,85.16424
292.40,85.37837
292.60,85.40983
292.80,85.30464
293.00,85.29909
293.20,85.24664
293.40,85.17346
293.60,85.18830
293.80,85.14712
294.00,85.23186
294.20,85.36892
294.40,85.38269
294.60,85.30044
294.80,85.33201
295.00,85.30493
295.20,85.26213
295.40,85.22385
295.60,85.24526
295.80,85.29429
296.00,85.30116
296.20,85.24491
296.40,85.24436
296.60,85.25211
296.80,85.28675
297.00,85.28149
297.20,85.34401
297.40,85.37223
297.60,85.39942
297.80,85.38942
298.00,85.33229
298.20,85.35140
298.40,85.39148
298.60,85.39045
298.80,85.39253
299.00,85.46188
299.20,85.49647
299.40,85.34325
299.60,85.39680
299.80,85.34800
300.00,85.33217
300.20,85.23076
300.40,85.23378
300.60,85.12990
300.80,85.15794
301.00,85.18633
301.20,85.19318
301.40,85.30290
301.60,85.45399
301.80,85.42729
302.00,85.39635
302.20,85.39872
302.40,85.41980
302.60,85.42355
302.80,85.43177
303.00,85.56338
303.20,85.63255
303.40,85.63707
303.60,85.56637
303.80,85.60434
304.00,85.45775
304.20,85.39572
304.40,85.38243
304.60,85.46157
304.80,85.41701
305.00,85.42311
305.20,85.51551
305.40,85.56850
305.60,85.49039
305.80,85.45180
306.00,85.43843
306.20,85.37897
306.40,85.26108
306.60,85.23860
306.80,85.21242
307.00,85.16858
307.20,85.18039
307.40,85.24126
307.60,85.26936
307.80,85.30290
308.00,85.43779
308.20,85.39507
308.40,85.38527
308.60,85.35271
308.80,85.39810
309.00,85.37202
309.20,85.30837
309.40,85.31113
309.60,85.38326
309.80,85.39644
310.00,85.33990
310.20,85.50244
310.40,85.50243
310.60,85.40462
310.80,85.36936
311.00,85.37222
311.20,85.22595
311.40,85.24429
311.60,85.27272
311.80,85.20705
312.00,85.11146
312.20,85.15443
312.40,85.11618
312.60,85.09837
312.80,85.15310
313.00,85.29692
313.20,85.26794
313.40,85.26396
313.60,85.18444
313.80,85.24983
314.00,85.25871
314.20,85.36387
314.40,85.49922
314.60,85.57045
314.80,85.56666
315.00,85.49559
315.20,85.35731
315.40,85.22121
315.60,85.21854
315.80,85.20778
316.00,85.18306
316.20,85.24692
316.40,85.34380
316.60,85.35092
316.80,85.37752
317.00,85.35105
317.20,85.41445
317.40,85.32309
317.60,85.40800
317.80,85.38383
318.00,85.45183
318.20,85.36547
318.40,85.39238
318.60,85.31114
318.80,85.36963
319.00,85.33760
319.20,85.36842
319.40,85.47960
319.60,85.47978
319.80,85.41246
320.00,85.40161
320.20,85.42484
320.40,85.34326
320.60,85.32649
320.80,85.41028
321.00,85.46827
321.20,85.55444
321.40,85.52966
321.60,85.56077
321.80,85.47642
322.00,85.41183
322.20,85.24523
322.40,85.25047
322.60,85.23383
322.80,85.26101
323.00,85.43728
323.20,85.60320
323.40,85.61249
323.60,85.52296
323.80,85.62229
324.00,85.45715
324.20,85.37162
324.40,85.33378
324.60,85.45033
324.80,85.34740
325.00,85.43616
325.20,85.53774
325.40,85.57165
325.60,85.59287
325.80,85.59423
326.00,85.57158
326.20,85.47180
326.40,85.51135
326.60,85.57609
326.80,85.54461
327.00,85.52740
327.20,85.55475
327.40,85.57384
327.60,85.52018
327.80,85.49367
328.00,85.45911
328.20,85.43671
328.40,85.32420
328.60,85.36752
328.80,85.38079
329.00,85.45418
329.20,85.43541
329.40,85.57312
329.60,85.59000
329.80,85.62447
330.00,85.63837
330.20,85.76226
330.40,85.64406
330.60,85.52004
330.80,85.53411
331.00,85.52746
331.20,85.42936
331.40,85.53292
331.60,85.55063
331.80,85.56396
332.00,85.49312
332.20,85.47152
332.40,85.40576
332.60,85.38218
332.80,85.41313
333.00,85.35109
333.20,85.31344
333.40,85.40360
333.60,85.46807
333.80,85.40413
334.00,85.56466
334.20,85.58691
334.40,85.59310
334.60,85.59361
334.80,85.53413
335.00,85.53697
335.20,85.63389
335.40,85.55912
335.60,85.63102
335.80,85.83361
336.00,85.77135
336.20,85.70386
336.40,85.71627
336.60,85.66371
336.80,85.52663
337.00,85.48496
337.20,85.49100
337.40,85.39625
337.60,85.40852
337.80,85.41783
338.00,85.55174
338.20,85.67786
338.40,85.74023
338.60,85.72481
338.80,85.65561
339.00,85.54540
339.20,85.54754
339.40,85.56630
339.60,85.46292
339.80,85.56167
340.00,85.63619
340.20,85.57826
340.40,85.56944
340.60,85.63575
340.80,85.58237
341.00,85.60032
341.20,85.50619
341.40,85.46951
341.60,85.47993
341.80,85.60683
342.00,85.70604
342.20,85.76865
342.40,85.84044
342.60,85.78778
342.80,85.74558
343.00,85.59897
343.20,85.59285
343.40,85.60432
343.60,85.64222
343.80,85.59645
344.00,85.54727
344.20,85.51805
344.40,85.49492
344.60,85.55465
344.80,85.56576
345.00,85.56529
345.20,85.59722
345.40,85.59957
345.60,85.62799
345.80,85.64457
346.00,85.69491
346.20,85.65968
346.40,85.67278
346.60,85.53247
346.80,85.52549
347.00,85.53609
347.20,85.58124
347.40,85.60521
347.60,85.69333
347.80,85.62208
348.00,85.64385
348.20,85.63961
348.40,85.54806
348.60,85.54130
348.80,85.61037
349.00,85.54717
349.20,85.54873
349.40,85.64995
349.60,85.68860
349.80,85.71608
350.00,85.77342
350.20,85.78158
350.40,85.73363
350.60,85.69541
350.80,85.70589
351.00,85.65535
351.20,85.63707
351.40,85.66544
351.60,85.69645
351.80,85.66695
352.00,85.70256
352.20,85.68861
352.40,85.66816
352.60,85.62126
352.80,85.57234
353.00,85.59448
353.20,85.60333
353.40,85.59905
353.60,85.70131
353.80,85.69772
354.00,85.76863
354.20,85.80164
354.40,85.78835
354.60,85.71765
354.80,85.77246
355.00,85.73008
355.20,85.73604
355.40,85.79477
355.60,85.77669
355.80,85.75574
356.00,85.69286
356.20,85.69508
356.40,85.56219
356.60,85.59409
356.80,85.60741
357.00,85.55718
357.20,85.52895
357.40,85.60304
357.60,85.60550
357.80,85.56132
358.00,85.64878
358.20,85.63588
358.40,85.58952
358.60,85.50020
358.80,85.48548
359.00,85.48063
359.20,85.41616
359.40,85.51922
359.60,85.60797
359.80,85.59425
360.00,85.54094
360.20,85.57465
360.40,85.52591
360.60,85.54640
360.80,85.59843
361.00,85.59801
361.20,85.60183
361.40,85.61382
361.60,85.53276
361.80,85.56771
362.00,85.57853
362.20,85.58298
362.40,85.57398
362.60,85.66731
362.80,85.68822
363.00,85.69252
363.20,85.68723
363.40,85.67460
363.60,85.54312
363.80,85.51867
364.00,85.60274
364.20,85.67955
364.40,85.62551
364.60,85.70876
364.80,85.69740
365.00,85.63160
365.20,85.58924
365.40,85.68391
365.60,85.75521
365.80,85.68444
366.00,85.71088
366.20,85.76592
366.40,85.69200
366.60,85.64547
366.80,85.72579
367.00,85.72195
367.20,85.61082
367.40,85.68118
367.60,85.66058
367.80,85.59788
368.00,85.61098
368.20,85.72256
368.40,85.78676
368.60,85.77616
368.80,85.83820
369.00,85.79537
369.20,85.73061
369.40,85.65038
369.60,85.67922
369.80,85.63661
370.00,85.69554
370.20,85.67281
370.40,85.81734
370.60,85.75624
370.80,85.71922
371.00,85.63739
371.20,85.68456
371.40,85.59562
371.60,85.62093
371.80,85.63301
372.00,85.71330
372.20,85.71516
372.40,85.65399
372.60,85.69290
372.80,85.72150
373.00,85.67110
373.20,85.64385
373.40,85.71575
373.60,85.71470
373.80,85.73271
374.00,85.71785
374.20,85.73772
374.40,85.71214
374.60,85.70136
374.80,85.75093
375.00,85.86618
375.20,85.88545
375.40,85.85404
375.60,85.87878
375.80,85.86458
376.00,85.74448
376.20,85.69850
376.40,85.71654
376.60,85.69627
376.80,85.62544
377.00,85.65170
377.20,85.65580
377.40,85.66635
377.60,85.66617
377.80,85.70707
378.00,85.75046
378.20,85.81514
378.40,85.83695
378.60,85.85036
378.80,85.88247
379.00,85.80695
379.20,85.78835
379.40,85.72421
379.60,85.74865
379.80,85.69274
380.00,85.70537
380.20,85.72132
380.40,85.69088
380.60,85.62058
380.80,85.67508
381.00,85.74834
381.20,85.70696
381.40,85.76034
381.60,85.81298
381.80,85.79897
382.00,85.77964
382.20,85.78596
382.40,85.73923
382.60,85.69935
382.80,85.69804
383.00,85.67252
383.20,85.65927
383.40,85.68541
383.60,85.68060
383.80,85.66042
384.00,85.69270
384.20,85.70489
384.40,85.70117
384.60,85.69296
384.80,85.72504
385.00,85.69950
385.20,85.71059
385.40,85.71193
385.60,85.75384
385.80,85.72384
386.00,85.71661
386.20,85.71965
386.40,85.81425
386.60,85.82450
386.80,85.85710
387.00,85.83906
387.20,85.85091
387.40,85.78007
387.60,85.76993
387.80,85.76976
388.00,85.78489
388.20,85.76334
388.40,85.75385
388.60,85.71676
388.80,85.72330
389.00,85.68880
389.20,85.66246
389.40,85.69848
389.60,85.73417
389.80,85.68932
390.00,85.71605
390.20,85.76064
390.40,85.74296
390.60,85.75954
390.80,85.75585
391.00,85.75155
391.20,85.73976
391.40,85.72657
391.60,85.70499
391.80,85.74117
392.00,85.76521
392.20,85.77165
392.40,85.76894
392.60,85.78098
392.80,85.78923
393.00,85.79924
393.20,85.78998
393.40,85.78556
393.60,85.78600
393.80,85.80472
394.00,85.79624
394.20,85.81909
394.40,85.79790
394.60,85.72921
394.80,85.60838
395.00,85.56073
395.20,85.55261
395.40,85.58714
395.60,85.60619
395.80,85.69283
396.00,85.72761
396.20,85.73161
396.40,85.76353
396.60,85.77748
396.80,85.78673
397.00,85.72428
397.20,85.73385
397.40,85.70750
397.60,85.75712
397.80,85.77391
398.00,85.82360
398.20,85.79344
398.40,85.80174
398.60,85.74678
398.80,85.72074
399.00,85.76912
399.20,85.79187
399.40,85.79655
399.60,85.81243
399.80,85.80881
400.00,85.80858
400.20,85.81545
400.40,85.83891
400.60,85.85213
400.80,85.81532
401.00,85.78056
401.20,85.71213
401.40,85.70613
401.60,85.73917
401.80,85.76653
402.00,85.80472
402.20,85.87663
402.40,85.85823
402.60,85.84178
402.80,85.85590
403.00,85.83639
403.20,85.85489
403.40,85.82028
403.60,85.77532
403.80,85.78489
404.00,85.79810
404.20,85.76126
404.40,85.77968
404.60,85.82304
404.80,85.87450
405.00,85.85594
405.20,85.86347
405.40,85.88779
405.60,85.79590
405.80,85.73714
406.00,85.71944
406.20,85.69676
406.40,85.66410
406.60,85.76886
406.80,85.78235
407.00,85.81150
407.20,85.85317
407.40,85.89525
407.60,85.84113
407.80,85.86221
408.00,85.86183
408.20,85.80894
408.40,85.72600
408.60,85.77226
408.80,85.71659
409.00,85.75343
409.20,85.80445
409.40,85.85101
409.60,85.81408
409.80,85.82076
410.00,85.79665
410.20,85.75693
410.40,85.75144
410.60,85.76949
410.80,85.78341
411.00,85.78452
411.20,85.79530
411.40,85.80591
411.60,85.83668
411.80,85.85573
412.00,85.88391
412.20,85.94075
412.40,85.98358
412.60,86.00222
412.80,85.96867
413.00,85.89988
413.20,85.86144
413.40,85.81312
413.60,85.78258
413.80,85.78952
414.00,85.79949
414.20,85.75270
414.40,85.79862
414.60,85.77095
414.80,85.79755
415.00,85.77700
415.20,85.84808
415.40,85.81731
415.60,85.79700
415.80,85.78412
416.00,85.81508
416.20,85.74173
416.40,85.73725
416.60,85.82023
416.80,85.81386
417.00,85.81252
417.20,85.83481
417.40,85.84333
417.60,85.81984
417.80,85.81987
418.00,85.81668
418.20,85.83766
418.40,85.82314
418.60,85.78496
418.80,85.82819
419.00,85.83489
419.20,85.82438
419.40,85.81780
419.60,85.83507
419.80,85.80022
420.00,85.75705
420.20,85.75351
420.40,85.74687
420.60,85.71951
420.80,85.68360
421.00,85.70259
421.20,85.73406
421.40,85.72794
421.60,85.77931
421.80,85.80536
422.00,85.85426
422.20,85.82854
422.40,85.84135
422.60,85.78264
422.80,85.80531
423.00,85.80301
423.20,85.81566
423.40,85.82633
423.60,85.87120
423.80,85.83922
424.00,85.82690
424.20,85.83525
424.40,85.87805
424.60,85.84692
424.80,85.86894
425.00,85.85281
425.20,85.83263
425.40,85.78237
425.60,85.81606
425.80,85.79910
426.00,85.79880
426.20,85.79357
426.40,85.80968
426.60,85.78355
426.80,85.76982
427.00,85.79933
427.20,85.84690
427.40,85.86102
427.60,85.87364
427.80,85.91902
428.00,85.87307
428.20,85.83683
428.40,85.83674
428.60,85.88031
428.80,85.84548
429.00,85.86824
429.20,85.84406
429.40,85.81461
429.60,85.79277
429.80,85.80177
430.00,85.81682
430.20,85.85521
430.40,85.84711
430.60,85.83937
430.80,85.84656
431.00,85.84072
431.20,85.83290
431.40,85.85368
431.60,85.87626
431.80,85.90260
432.00,85.90361
432.20,85.90097
432.40,85.88818
432.60,85.80993
432.80,85.76561
433.00,85.77064
433.20,85.73759
433.40,85.75511
433.60,85.80646
433.80,85.82891
434.00,85.82851
434.20,85.86453
434.40,85.85597
434.60,85.86448
434.80,85.85973
435.00,85.84998
435.20,85.86485
435.40,85.85033
435.60,85.84157
435.80,85.84434
436.00,85.84622
436.20,85.83470
436.40,85.86071
436.60,85.88165
436.80,85.88191
437.00,85.85541
437.20,85.82194
437.40,85.83134
437.60,85.82380
437.80,85.82882
438.00,85.83143
438.20,85.83786
438.40,85.83345
438.60,85.84491
438.80,85.82345
439.00,85.85894
439.20,85.90363
439.40,85.89995
439.60,85.87703
439.80,85.87403
440.00,85.87781
440.20,85.88514
440.40,85.87968
440.60,85.91061
440.80,85.92399
441.00,85.91636
441.20,85.86529
441.40,85.86566
441.60,85.82564
441.80,85.82601
442.00,85.82276
442.20,85.86080
442.40,85.86649
442.60,85.84538
442.80,85.87273
443.00,85.84931
443.20,85.83159
443.40,85.83385
443.60,85.87139
443.80,85.82670
444.00,85.84715
444.20,85.84609
444.40,85.85374
444.60,85.82770
444.80,85.87497
445.00,85.86903
445.20,85.86197
445.40,85.87463
445.60,85.91640
445.80,85.87114
446.00,85.88745
446.20,85.85209
446.40,85.84160
446.60,85.81958
446.80,85.85604
447.00,85.84527
447.20,85.87750
447.40,85.89056
447.60,85.91627
447.80,85.89236
448.00,85.88231
448.20,85.90837
448.40,85.90581
448.60,85.90133
448.80,85.92598
449.00,85.94371
449.20,85.93129
449.40,85.90865
449.60,85.87575
449.80,85.83554
450.00,85.84807
450.20,85.83559
450.40,85.83755
450.60,85.84259
450.80,85.85967
451.00,85.81302
451.20,85.83417
451.40,85.80824
451.60,85.81792
451.80,85.82485
452.00,85.84157
452.20,85.83574
452.40,85.88631
452.60,85.86009
452.80,85.88761
453.00,85.89628
453.20,85.88430
453.40,85.83173
453.60,85.87158
453.80,85.85532
454.00,85.86257
454.20,85.85869
454.40,85.90783
454.60,85.88880
454.80,85.88663
455.00,85.86082
455.20,85.86914
455.40,85.88569
455.60,85.88319
455.80,85.89337
456.00,85.89665
456.20,85.89063
456.40,85.85520
456.60,85.85894
456.80,85.84631
457.00,85.83933
457.20,85.84579
457.40,85.84068
457.60,85.85042
457.80,85.85402
458.00,85.86147
458.20,85.89861
458.40,85.89075
458.60,85.88786
458.80,85.88194
459.00,85.89168
459.20,85.85707
459.40,85.86521
459.60,85.85179
459.80,85.86970
460.00,85.85126
460.20,85.84791
460.40,85.87741
460.60,85.87631
460.80,85.86098
461.00,85.87174
461.20,85.86045
461.40,85.82775
461.60,85.84586
461.80,85.83494
462.00,85.84477
462.20,85.83663
462.40,85.85335
462.60,85.82878
462.80,85.83534
463.00,85.82843
463.20,85.84250
463.40,85.83298
463.60,85.84269
463.80,85.86864
464.00,85.86966
464.20,85.88520
464.40,85.93644
464.60,85.94407
464.80,85.91182
465.00,85.93885
465.20,85.90314
465.40,85.83289
465.60,85.84173
465.80,85.83875
466.00,85.80973
466.20,85.84226
466.40,85.84957
466.60,85.89335
466.80,85.90221
467.00,85.90648
467.20,85.90101
467.40,85.91500
467.60,85.89317
467.80,85.90218
468.00,85.91093
468.20,85.90237
468.40,85.89903
468.60,85.88078
468.80,85.84698
469.00,85.87272
469.20,85.87348
469.40,85.87041
469.60,85.85266
469.80,85.86955
470.00,85.83935
470.20,85.87465
470.40,85.85017
470.60,85.82855
470.80,85.83527
471.00,85.84173
471.20,85.79757
471.40,85.81270
471.60,85.83707
471.80,85.83611
472.00,85.83714
472.20,85.86549
472.40,85.87747
472.60,85.87326
472.80,85.89129
473.00,85.87862
473.20,85.85564
473.40,85.86638
473.60,85.90726
473.80,85.88032
474.00,85.89432
474.20,85.87778
474.40,85.89103
474.60,85.83813
474.80,85.85106
475.00,85.84102
475.20,85.86438
475.40,85.82805
475.60,85.87541
475.80,85.89622
476.00,85.90218
476.20,85.88874
476.40,85.92296
476.60,85.89669
476.80,85.86090
477.00,85.85466
477.20,85.89658
477.40,85.86284
477.60,85.85134
477.80,85.84605
478.00,85.85982
478.20,85.82011
478.40,85.82908
478.60,85.83718
478.80,85.87396
479.00,85.85881
479.20,85.87288
479.40,85.86853
479.60,85.85809
479.80,85.84263
480.00,85.85933
480.20,85.87565
480.40,85.89369
480.60,85.92252
480.80,85.91818
481.00,85.93889
481.20,85.93791
481.40,85.94283
481.60,85.92466
481.80,85.92690
482.00,85.91064
482.20,85.88856
482.40,85.87057
482.60,85.88158
482.80,85.90372
483.00,85.90825
483.20,85.90985
483.40,85.92406
483.60,85.93647
483.80,85.94105
484.00,85.92851
484.20,85.94261
484.40,85.94341
484.60,85.93118
484.80,85.90458
485.00,85.92666
485.20,85.91622
485.40,85.91775
485.60,85.92933
485.80,85.93211
486.00,85.92236
486.20,85.93696
486.40,85.92491
486.60,85.88695
486.80,85.89571
487.00,85.86952
487.20,85.84055
487.40,85.83910
487.60,85.86916
487.80,85.88125
488.00,85.88720
488.20,85.93019
488.40,85.96342
488.60,85.93892
488.80,85.90884
489.00,85.92109
489.20,85.92004
489.40,85.87208
489.60,85.88445
489.80,85.90349
490.00,85.92393
490.20,85.92161
490.40,85.94771
490.60,85.95097
490.80,85.94980
491.00,85.93996
491.20,85.92585
491.40,85.93100
491.60,85.93469
491.80,85.95521
492.00,85.97450
492.20,85.98478
492.40,85.98647
492.60,85.98363
492.80,85.93416
493.00,85.85726
493.20,85.85485
493.40,85.84729
493.60,85.86439
493.80,85.90140
494.00,85.95589
494.20,85.96387
494.40,85.95015
494.60,85.94295
494.80,85.93802
495.00,85.91941
495.20,85.91368
495.40,85.92257
495.60,85.90322
495.80,85.88711
496.00,85.88534
496.20,85.88734
496.40,85.89518
496.60,85.90258
496.80,85.90459
497.00,85.92539
497.20,85.93230
497.40,85.91848
497.60,85.92842
497.80,85.94771
498.00,85.94910
498.20,85.93274
498.40,85.94896
498.60,85.95241
498.80,85.94281
499.00,85.92864
499.20,85.93651
499.40,85.94873
499.60,85.96141
499.80,85.97856
500.00,85.95796
500.20,85.95145
500.40,85.92025
500.60,85.88080
500.80,85.89695
501.00,85.91616
501.20,85.92792
501.40,85.94322
501.60,85.95477
501.80,85.92346
502.00,85.94499
502.20,85.93581
502.40,85.94832
502.60,85.95091
502.80,85.96181
503.00,85.96020
503.20,85.95094
503.40,85.93044
503.60,85.92249
503.80,85.89467
504.00,85.88513
504.20,85.91899
504.40,85.92827
504.60,85.94452
504.80,85.96475
505.00,85.99420
505.20,85.97235
505.40,85.96001
505.60,85.96153
505.80,85.94813
506.00,85.92174
506.20,85.90952
506.40,85.92604
506.60,85.91741
506.80,85.91161
507.00,85.90299
507.20,85.90790
507.40,85.91646
507.60,85.91368
507.80,85.93056
508.00,85.92529
508.20,85.91969
508.40,85.86402
508.60,85.88564
508.80,85.86159
509.00,85.88737
509.20,85.92677
509.40,85.95033
509.60,85.97091
509.80,85.98729
510.00,85.98236
510.20,85.94236
510.40,85.96304
510.60,85.93529
510.80,85.98003
511.00,85.97530
511.20,85.98241
511.40,85.99562
511.60,85.99949
511.80,85.93119
512.00,85.90579
512.20,85.90962
512.40,85.88001
512.60,85.86085
512.80,85.88248
513.00,85.90022
513.20,85.88236
513.40,85.88636
513.60,85.90423
513.80,85.91813
514.00,85.91894
514.20,85.91510
514.40,85.93971
514.60,85.92958
514.80,85.89211
515.00,85.88151
515.20,85.91121
515.40,85.88403
515.60,85.88690
515.80,85.91097
516.00,85.91775
516.20,85.90937
516.40,85.91713
516.60,85.92538
516.80,85.93778
517.00,85.92967
517.20,85.91117
517.40,85.92118
517.60,85.93562
517.80,85.93816
518.00,85.93298
518.20,85.94984
518.40,85.94394
518.60,85.91206
518.80,85.93247
519.00,85.96488
519.20,85.95488
519.40,85.97404
519.60,85.97654
519.80,85.96346
520.00,85.98034
520.20,85.97723
520.40,85.92463
520.60,85.92565
520.80,85.90953
521.00,85.85595
521.20,85.89175
521.40,85.91228
521.60,85.92041
521.80,85.91830
522.00,85.93592
522.20,85.88437
522.40,85.87270
522.60,85.85845
522.80,85.87025
523.00,85.86792
523.20,85.91383
523.40,85.94294
523.60,85.96916
523.80,85.95436
524.00,85.94993
524.20,85.91017
524.40,85.88690
524.60,85.86631
524.80,85.87758
525.00,85.90510
525.20,85.91829
525.40,85.96396
525.60,85.99842
525.80,86.01155
526.00,85.98197
526.20,86.01194
526.40,85.99446
526.60,85.96140
526.80,85.95256
527.00,85.92678
527.20,85.91757
527.40,85.89761
527.60,85.89827
527.80,85.88704
528.00,85.90748
528.20,85.87508
528.40,85.86710
528.60,85.88036
528.80,85.88684
529.00,85.89326
529.20,85.90971
529.40,85.93385
529.60,85.93292
529.80,85.93544
530.00,85.92824
530.20,85.93962
530.40,85.94061
530.60,85.94793
530.80,85.92708
531.00,85.96519
531.20,85.96129
531.40,85.93724
531.60,85.88759
531.80,85.88222
532.00,85.85891
532.20,85.87439
532.40,85.90278
532.60,85.94486
532.80,85.95545
533.00,85.94501
533.20,85.91748
533.40,85.90388
533.60,85.90602
533.80,85.90095
534.00,85.88801
534.20,85.88109
534.40,85.85127
534.60,85.84630
534.80,85.87785
535.00,85.90201
535.20,85.93169
535.40,85.94576
535.60,85.93183
535.80,85.92191
536.00,85.92597
536.20,85.94574
536.40,85.94441
536.60,85.96284
536.80,85.96092
537.00,85.95030
537.20,85.91327
537.40,85.94997
537.60,85.96262
537.80,85.96167
538.00,85.99393
538.20,86.01024
538.40,85.99012
538.60,85.98149
538.80,85.97835
539.00,85.96969
539.20,85.94047
539.40,85.93513
539.60,85.94338
539.80,85.98070
540.00,85.98723
540.20,86.01748
540.40,86.02675
540.60,86.03883
540.80,86.02483
541.00,86.00895
541.20,86.02571
541.40,86.01219
541.60,85.96379
541.80,85.94804
542.00,85.94739
542.20,85.92238
542.40,85.93950
542.60,85.97801
542.80,85.99963
543.00,85.99003
543.20,86.02104
543.40,86.02565
543.60,86.02437
543.80,85.99346
544.00,86.04010
544.20,85.99706
544.40,85.98943
544.60,85.98662
544.80,85.98621
545.00,85.97077
545.20,85.98014
545.40,85.94216
545.60,85.92985
545.80,85.92801
546.00,85.91177
546.20,85.90017
546.40,85.93147
546.60,85.93031
546.80,85.92985
547.00,85.91313
547.20,85.91850
547.40,85.90576
547.60,85.92836
547.80,85.94170
548.00,85.95090
548.20,85.95777
548.40,85.98336
548.60,85.95945
548.80,85.96530
549.00,85.96790
549.20,85.99142
549.40,85.99085
549.60,85.99786
549.80,85.99797
550.00,85.99090
550.20,85.97801
550.40,85.98262
550.60,85.96156
550.80,85.96214
551.00,85.96944
551.20,85.96425
551.40,85.93085
551.60,85.95331
551.80,85.95663
552.00,85.95985
552.20,85.97591
552.40,86.00662
552.60,86.01063
552.80,85.97264
553.00,85.95322
553.20,85.90913
553.40,85.90258
553.60,85.88482
553.80,85.91743
554.00,85.91819
554.20,85.95311
554.40,85.96736
554.60,85.93758
554.80,85.95064
555.00,85.98088
555.20,85.98870
555.40,85.99380
555.60,86.02327
555.80,86.03284
556.00,86.02082
556.20,86.00790
556.40,86.00109
556.60,86.03486
556.80,86.00535
557.00,86.00700
557.20,86.01727
557.40,85.98716
557.60,85.95274
557.80,85.93284
558.00,85.91172
558.20,85.87717
558.40,85.90638
558.60,85.90968
558.80,85.91327
559.00,85.94158
559.20,85.97181
559.40,85.95666
559.60,85.97786
559.80,86.00706
560.00,86.00798
560.20,85.99499
560.40,85.99123
560.60,85.95493
560.80,85.93227
561.00,85.91872
561.20,85.90577
561.40,85.90602
561.60,85.90167
561.80,85.91472
562.00,85.94326
562.20,85.94948
562.40,85.96551
562.60,85.97421
562.80,85.97548
563.00,85.94320
563.20,85.94362
563.40,85.93387
563.60,85.97271
563.80,85.95774
564.00,85.95622
564.20,85.96628
564.40,85.94763
564.60,85.92256
564.80,85.94229
565.00,85.94764
565.20,85.94963
565.40,85.95680
565.60,85.95566
565.80,85.93443
566.00,85.92340
566.20,85.92427
566.40,85.92315
566.60,85.91810
566.80,85.93315
567.00,85.92989
567.20,85.93889
567.40,85.92132
567.60,85.92812
567.80,85.93617
568.00,85.94685
568.20,85.94685
568.40,86.00221
568.60,85.99507
568.80,85.96690
569.00,85.99165
569.20,85.96755
569.40,85.93831
569.60,85.96672
569.80,85.95132
570.00,85.92243
570.20,85.92139
570.40,85.91487
570.60,85.85448
570.80,85.86639
571.00,85.88399
571.20,85.91292
571.40,85.94993
571.60,85.98742
571.80,86.02132
572.00,86.00011
572.20,86.00008
572.40,85.98496
572.60,85.98899
572.80,85.97493
573.00,85.98986
573.20,85.97171
573.40,85.96282
573.60,85.96622
573.80,85.95968
574.00,85.93296
574.20,85.93620
574.40,85.94143
574.60,85.95040
574.80,85.96355
575.00,85.98965
575.20,86.00759
575.40,86.00332
575.60,85.99779
575.80,86.00249
576.00,86.00690
576.20,86.00875
576.40,85.99337
576.60,85.98509
576.80,85.97870
577.00,85.97763
577.20,85.96163
577.40,85.96937
577.60,85.96174
577.80,85.97481
578.00,85.99952
578.20,85.99943
578.40,86.01290
578.60,86.03823
578.80,86.02448
579.00,86.00616
579.20,85.99178
579.40,85.95684
579.60,85.94513
579.80,85.95805
580.00,85.94594
580.20,85.96495
580.40,85.98121
580.60,85.99660
580.80,85.96279
581.00,85.97603
581.20,85.96243
581.40,85.97395
581.60,85.96178
581.80,85.97362
582.00,85.96497
582.20,85.99731
582.40,86.00047
582.60,85.97282
582.80,85.97278
583.00,85.95179
583.20,85.92747
583.40,85.93642
583.60,85.95260
583.80,85.97353
584.00,86.01698
584.20,86.03746
584.40,86.05888
584.60,86.07458
584.80,86.06436
585.00,86.05796
585.20,86.06663
585.40,86.03511
585.60,86.02995
585.80,86.03417
586.00,86.02780
586.20,86.00560
586.40,86.00916
586.60,85.99785
586.80,85.98487
587.00,86.00284
587.20,85.99294
587.40,86.01465
587.60,86.01516
587.80,86.03604
588.00,86.00013
588.20,86.00596
588.40,85.98747
588.60,85.99911
588.80,85.99217
589.00,85.99557
589.20,86.01428
589.40,85.99268
589.60,85.98683
589.80,85.98742
590.00,86.00442
590.20,85.99520
590.40,86.03205
590.60,86.04285
590.80,86.02892
591.00,86.04523
591.20,86.03764
591.40,86.01967
591.60,86.02979
591.80,86.08308
592.00,86.05663
592.20,86.06962
592.40,86.08038
592.60,86.06491
592.80,86.03990
593.00,86.07098
593.20,86.06178
593.40,86.02527
593.60,86.02136
593.80,86.01210
594.00,85.96449
594.20,85.96391
594.40,86.01815
594.60,86.04060
594.80,86.02893
595.00,86.07698
595.20,86.07643
595.40,86.04591
595.60,86.02211
595.80,86.03943
596.00,86.02445
596.20,86.04390
596.40,86.04661
596.60,86.06350
596.80,86.05911
597.00,86.06293
597.20,86.04551
597.40,86.04283
597.60,86.06482
597.80,86.03579
598.00,86.02474
598.20,86.02110
598.40,86.01936
598.60,86.00157
598.80,86.03542
599.00,86.04069
599.20,86.05322
599.40,86.06375
599.60,86.05990
599.80,86.01652
600.00,86.00081
600.20,86.01490
600.40,86.02358
600.60,86.01213
600.80,86.06594
601.00,86.07599
601.20,86.06282
601.40,86.07140
601.60,86.07094
601.80,86.04799
602.00,86.05690
602.20,86.04112
602.40,86.01965
602.60,86.02139
602.80,86.01722
603.00,85.99813
603.20,85.98350
603.40,85.99979
603.60,86.00060
603.80,86.01357
604.00,86.04140
604.20,86.04100
604.40,86.00823
604.60,85.99944
604.80,85.98815
605.00,85.96498
605.20,85.99812
605.40,86.00473
605.60,85.99731
605.80,86.01024
606.00,86.01704
606.20,86.00311
606.40,85.99432
606.60,86.01773
606.80,86.01311
607.00,85.99672
607.20,85.98740
607.40,86.00552
607.60,85.98692
607.80,85.99455
608.00,86.01754
608.20,86.03642
608.40,86.04435
608.60,86.08531
608.80,86.08557
609.00,86.10473
609.20,86.09349
609.40,86.09731
609.60,86.06827
609.80,86.05732
610.00,86.02395
610.20,86.02809
610.40,86.02841
610.60,86.00529
610.80,86.02783
611.00,86.02913
611.20,86.01044
611.40,86.02453
611.60,86.03658
611.80,85.98097
612.00,85.96949
612.20,85.98758
612.40,85.94597
612.60,85.95440
612.80,85.97502
613.00,86.00137
613.20,85.99315
613.40,86.03317
613.60,86.05638
613.80,86.05886
614.00,86.07041
614.20,86.08971
614.40,86.06957
614.60,86.06005
614.80,86.09584
615.00,86.08353
615.20,86.09145
615.40,86.10415
615.60,86.09831
615.80,86.08174
616.00,86.04761
616.20,86.02316
616.40,85.99870
616.60,86.00548
616.80,85.98894
617.00,86.00789
617.20,86.00944
617.40,86.02550
617.60,86.03173
617.80,86.03945
618.00,86.03865
618.20,86.05784
618.40,86.04820
618.60,86.01875
618.80,86.04004
619.00,86.02794
619.20,86.02074
619.40,86.01707
619.60,86.00892
619.80,85.98160
620.00,85.99870
620.20,85.98807
620.40,85.99349
620.60,86.00737
620.80,86.01428
621.00,86.00358
621.20,86.00199
621.40,86.00000
621.60,85.99802
621.80,85.98697
622.00,85.98932
622.20,85.98692
622.40,85.95812
622.60,85.95003
622.80,85.96118
623.00,85.95072
623.20,85.96797
623.40,85.99747
623.60,86.01400
623.80,86.02011
624.00,86.04409
624.20,86.04029
624.40,86.03284
624.60,86.03069
624.80,85.99665
625.00,85.99041
625.20,85.98655
625.40,86.01516
625.60,86.00743
625.80,86.05404
626.00,86.06204
626.20,86.05102
626.40,86.02680
626.60,85.99364
626.80,86.01576
627.00,86.00862
627.20,86.00172
627.40,85.98881
627.60,86.03516
627.80,85.98960
628.00,85.99169
628.20,85.97188
628.40,86.00379
628.60,86.00154
628.80,86.01469
629.00,85.99904
629.20,86.01308
629.40,85.99756
629.60,86.00644
629.80,86.01523
630.00,86.03938
630.20,86.04872
630.40,86.01863
630.60,86.00229
630.80,85.97149
631.00,85.95700
631.20,85.93578
631.40,85.98271
631.60,86.00376
631.80,86.02330
632.00,86.01143
632.20,86.01738
632.40,85.99313
632.60,85.94804
632.80,85.95083
633.00,85.95552
633.20,85.98102
633.40,85.98498
633.60,85.98866
633.80,85.97636
634.00,85.99598
634.20,85.98793
634.40,86.00004
634.60,86.00326
634.80,86.01014
635.00,86.00913
635.20,85.98695
635.40,85.97499
635.60,85.99199
635.80,85.97491
636.00,85.98884
636.20,86.01351
636.40,86.02191
636.60,86.00624
636.80,85.99750
637.00,85.98468
637.20,86.00293
637.40,86.01068
637.60,86.02633
637.80,86.04712
638.00,86.02105
638.20,86.02396
638.40,86.01874
638.60,86.01284
638.80,86.00682
639.00,86.01500
639.20,85.98433
639.40,85.98222
639.60,86.00209
639.80,86.00526
640.00,86.00911
640.20,85.99900
640.40,85.97533
640.60,85.93336
640.80,85.91353
641.00,85.90049
641.20,85.93280
641.40,85.94211
641.60,85.96147
641.80,85.98765
642.00,85.98946
642.20,85.96160
642.40,85.92732
642.60,85.95537
642.80,85.92497
643.00,85.95670
643.20,86.00078
643.40,86.04001
643.60,86.02593
643.80,86.05064
644.00,86.05409
644.20,86.02470
644.40,86.03178
644.60,86.03758
644.80,86.02766
645.00,85.99302
645.20,85.99219
645.40,85.96609
645.60,85.97829
645.80,85.97125
646.00,85.97004
646.20,85.96343
646.40,85.98691
646.60,85.95867
646.80,86.00562
647.00,86.03098
647.20,86.02838
647.40,86.01245
647.60,86.00056
647.80,85.96666
648.00,85.95067
648.20,85.95338
648.40,85.97397
648.60,85.98408
648.80,85.97361
649.00,85.96810
649.20,85.97912
649.40,85.99409
649.60,86.01173
649.80,86.02392
650.00,86.02071
650.20,85.99405
650.40,85.98737
650.60,85.98601
650.80,85.96520
651.00,85.96495
651.20,86.01917
651.40,86.01001
651.60,86.01625
651.80,86.03521
652.00,86.03293
652.20,85.98537
652.40,86.02357
652.60,86.00643
652.80,86.02326
653.00,86.05916
653.20,86.04652
653.40,85.97726
653.60,85.96789
653.80,85.95966
654.00,85.93724
654.20,85.95188
654.40,85.98881
654.60,85.98325
654.80,85.98297
655.00,85.96171
655.20,85.95562
655.40,85.94387
655.60,85.97325
655.80,85.96376
656.00,85.97939
656.20,86.00572
656.40,86.03347
656.60,86.03898
656.80,86.06641
657.00,86.06937
657.20,86.07037
657.40,86.04752
657.60,86.02711
657.80,85.96609
658.00,85.94623
658.20,85.94057
658.40,85.96082
658.60,85.93439
658.80,86.00060
659.00,86.01069
659.20,86.01143
659.40,85.97660
659.60,86.00497
659.80,85.96597
660.00,85.97491
660.20,86.01398
660.40,86.00170
660.60,85.99284
660.80,85.98702
661.00,85.97676
661.20,85.94851
661.40,85.93251
661.60,85.92937
661.80,85.96804
662.00,85.97240
662.20,85.95183
662.40,85.98147
662.60,86.00993
662.80,85.98839
663.00,86.02515
663.20,86.03188
663.40,86.03305
663.60,86.02229
663.80,86.02061
664.00,86.01962
664.20,86.01279
664.40,85.99331
664.60,85.97963
664.80,85.95674
665.00,85.91786
665.20,85.93164
665.40,85.95077
665.60,85.97795
665.80,86.00867
666.00,86.02376
666.20,86.03859
666.40,86.03542
666.60,86.03075
666.80,86.00425
667.00,86.01621
667.20,85.98139
667.40,85.99725
667.60,86.00844
667.80,86.02145
668.00,85.96698
668.20,85.97622
668.40,85.95368
668.60,85.92654
668.80,85.95665
669.00,86.00910
669.20,85.99197
669.40,85.98413
669.60,86.00087
669.80,85.96663
670.00,85.96027
670.20,86.00906
670.40,86.06508
670.60,86.02208
670.80,86.01774
671.00,86.02204
671.20,85.96752
671.40,85.95641
671.60,85.98339
671.80,85.99808
672.00,85.96772
672.20,86.01581
672.40,85.97091
672.60,85.96717
672.80,85.93224
673.00,85.95281
673.20,85.90759
673.40,85.93854
673.60,85.91986
673.80,85.95955
674.00,85.93870
674.20,85.99544
674.40,85.98564
674.60,85.98989
674.80,85.99789
675.00,86.00676
675.20,85.96014
675.40,85.94780
675.60,85.95339
675.80,86.01025
676.00,86.01372
676.20,86.02442
676.40,86.02215
676.60,85.99898
676.80,85.93407
677.00,85.93875
677.20,85.95935
677.40,85.97811
677.60,86.02895
677.80,86.03084
678.00,86.03023
678.20,86.00456
678.40,85.98965
678.60,85.99318
678.80,85.99837
679.00,85.93957
679.20,85.95552
679.40,86.01432
679.60,86.00447
679.80,85.99091
680.00,86.09285
680.20,86.08538
680.40,86.03798
680.60,86.03677
680.80,86.04167
681.00,86.01521
681.20,85.99553
681.40,85.99558
681.60,85.98875
681.80,85.97307
682.00,85.99098
682.20,86.01912
682.40,86.02034
682.60,86.05497
682.80,86.06948
683.00,86.02838
683.20,86.02877
683.40,86.06007
683.60,86.05736
683.80,86.08570
684.00,86.10092
684.20,86.08128
684.40,86.03055
684.60,86.05153
684.80,86.06690
685.00,86.03249
685.20,86.03121
685.40,86.05291
685.60,86.01726
685.80,85.99589
686.00,86.01260
686.20,86.05536
686.40,86.05430
686.60,86.02497
686.80,86.03774
687.00,86.04254
687.20,86.03011
687.40,86.06051
687.60,86.04676
687.80,86.02251
688.00,86.06325
688.20,86.10775
688.40,86.09056
688.60,86.15111
688.80,86.11152
689.00,86.11576
689.20,86.05326
689.40,86.08307
689.60,86.08170
689.80,86.15428
690.00,86.15630
690.20,86.19145
690.40,86.16279
690.60,86.14195
690.80,86.14532
691.00,86.13252
691.20,86.12987
691.40,86.13963
691.60,86.14928
691.80,86.14654
692.00,86.13384
692.20,86.15294
692.40,86.14876
692.60,86.16742
692.80,86.12831
693.00,86.12297
693.20,86.07409
693.40,86.09720
693.60,86.07919
693.80,86.15532
694.00,86.16323
694.20,86.20526
694.40,86.20175
694.60,86.25494
694.80,86.21993
695.00,86.22235
695.20,86.17772
695.40,86.19888
695.60,86.15919
695.80,86.11647
696.00,86.15827
696.20,86.21922
696.40,86.19633
696.60,86.17058
696.80,86.18510
697.00,86.13614
697.20,86.12589
697.40,86.14988
697.60,86.17094
697.80,86.18722
698.00,86.22912
698.20,86.22289
698.40,86.15679
698.60,86.18574
698.80,86.21870
699.00,86.20967
699.20,86.23258
699.40,86.30570
699.60,86.25172
699.80,86.31041
700.00,86.29099
700.20,86.29059
700.40,86.23613
700.60,86.27614
700.80,86.22758
701.00,86.26742
701.20,86.25761
701.40,86.27135
701.60,86.24339
701.80,86.18358
702.00,86.15285
702.20,86.16496
702.40,86.26251
702.60,86.28829
702.80,86.34165
703.00,86.37316
703.20,86.31468
703.40,86.24746
703.60,86.31706
703.80,86.29325
704.00,86.32016
704.20,86.36572
704.40,86.36259
704.60,86.36572
704.80,86.41681
705.00,86.36395
705.20,86.35763
705.40,86.37295
705.60,86.28886
705.80,86.25404
706.00,86.29700
706.20,86.35327
706.40,86.41189
706.60,86.44527
706.80,86.45377
707.00,86.46641
707.20,86.46148
707.40,86.42960
707.60,86.45298
707.80,86.46629
708.00,86.45666
708.20,86.46216
708.40,86.47434
708.60,86.41564
708.80,86.36336
709.00,86.32733
709.20,86.30204
709.40,86.33458
709.60,86.35964
709.80,86.42177
710.00,86.49647
710.20,86.48061
710.40,86.42848
710.60,86.44434
710.80,86.47870
711.00,86.45403
711.20,86.48649
711.40,86.49973
711.60,86.57971
711.80,86.59385
712.00,86.59957
712.20,86.62871
712.40,86.63499
712.60,86.58824
712.80,86.52846
713.00,86.51494
713.20,86.49068
713.40,86.48443
713.60,86.46346
713.80,86.51253
714.00,86.54709
714.20,86.55245
714.40,86.53064
714.60,86.61070
714.80,86.60232
715.00,86.58553
715.20,86.63163
715.40,86.63505
715.60,86.62835
715.80,86.57724
716.00,86.60057
716.20,86.52440
716.40,86.52245
716.60,86.46248
716.80,86.47275
717.00,86.46794
717.20,86.48720
717.40,86.52690
717.60,86.53780
717.80,86.54149
718.00,86.50007
718.20,86.52200
718.40,86.48649
718.60,86.52377
718.80,86.57174
719.00,86.62096
719.20,86.59546
719.40,86.61057
719.60,86.52975
719.80,86.50277
720.00,86.46857
720.20,86.49493
720.40,86.47584
720.60,86.51799
720.80,86.50213
721.00,86.57297
721.20,86.61698
721.40,86.66453
721.60,86.70662
721.80,86.72911
722.00,86.75381
722.20,86.67098
722.40,86.67131
722.60,86.63180
722.80,86.70796
723.00,86.63638
723.20,86.70787
723.40,86.64205
723.60,86.71350
723.80,86.64607
724.00,86.69786
724.20,86.68609
724.40,86.75140
724.60,86.67877
724.80,86.67327
725.00,86.66605
725.20,86.68733
725.40,86.74090
725.60,86.73815
725.80,86.81756
726.00,86.75790
726.20,86.78936
726.40,86.74842
726.60,86.79236
726.80,86.71989
727.00,86.71647
727.20,86.63043
727.40,86.63661
727.60,86.64483
727.80,86.62069
728.00,86.66939
728.20,86.70458
728.40,86.73076
728.60,86.72725
728.80,86.77098
729.00,86.78681
729.20,86.80890
729.40,86.73976
729.60,86.73180
729.80,86.70557
730.00,86.66642
730.20,86.63158
730.40,86.64199
730.60,86.68101
730.80,86.70427
731.00,86.70475
731.20,86.74123
731.40,86.76654
731.60,86.71020
731.80,86.73785
732.00,86.82965
732.20,86.77580
732.40,86.80727
732.60,86.82662
732.80,86.90971
733.00,86.86630
733.20,86.95155
733.40,86.94938
733.60,86.94215
733.80,86.82845
734.00,86.78638
734.20,86.75275
734.40,86.74319
734.60,86.75602
734.80,86.77557
735.00,86.78136
735.20,86.77535
735.40,86.71565
735.60,86.74334
735.80,86.78029
736.00,86.85123
736.20,86.83748
736.40,86.88826
736.60,86.84022
736.80,86.85695
737.00,86.78622
737.20,86.83750
737.40,86.89033
737.60,86.88957
737.80,86.85458
738.00,86.91764
738.20,86.84221
738.40,86.76851
738.60,86.77509
738.80,86.77236
739.00,86.70433
739.20,86.72764
739.40,86.72298
739.60,86.78033
739.80,86.81195
740.00,86.84633
740.20,86.85124
740.40,86.97562
740.60,86.92098
740.80,86.90182
741.00,86.97568
741.20,87.05146
741.40,86.97493
741.60,86.99375
741.80,86.95244
742.00,86.85419
742.20,86.80995
742.40,86.77089
742.60,86.75722
742.80,86.82035
743.00,86.88591
743.20,86.85235
743.40,86.85134
743.60,86.91040
743.80,86.90020
744.00,86.76813
744.20,86.79429
744.40,86.86820
744.60,86.88232
744.80,86.82371
745.00,86.89713
745.20,86.86895
745.40,86.90543
745.60,86.86012
745.80,86.84463
746.00,86.80218
746.20,86.80322
746.40,86.73552
746.60,86.71376
746.80,86.77806
747.00,86.90005
747.20,86.87569
747.40,86.80061
747.60,86.78182
747.80,86.76186
748.00,86.65692
748.20,86.71997
748.40,86.83406
748.60,86.86318
748.80,86.83034
749.00,86.87178
749.20,86.86985
749.40,86.87267
749.60,86.86749
749.80,86.93163
750.00,86.94628
750.20,86.96309
750.40,86.88109
750.60,86.91247
750.80,86.79237
751.00,86.78782
751.20,86.79783
751.40,86.84575
751.60,86.86595
751.80,86.96769
752.00,86.98418
752.20,86.90998
752.40,86.86886
752.60,86.80657
752.80,86.79066
753.00,86.81444
753.20,86.86180
753.40,86.91717
753.60,86.96150
753.80,86.96690
754.00,86.93063
754.20,86.92814
754.40,86.88385
754.60,86.92743
754.80,86.91223
755.00,86.86788
755.20,86.89622
755.40,86.91684
755.60,86.87289
755.80,86.90066
756.00,86.94457
756.20,86.88546
756.40,86.87437
756.60,86.92791
756.80,86.92469
757.00,86.91350
757.20,86.97016
757.40,87.03330
757.60,86.97374
757.80,86.95061
758.00,86.97696
758.20,87.00773
758.40,86.98621
758.60,87.01060
758.80,87.04875
759.00,87.08031
759.20,87.06824
759.40,87.09967
759.60,87.09137
759.80,87.10839
760.00,87.00505
760.20,86.95730
760.40,86.89357
760.60,86.79600
760.80,86.74650
761.00,86.76609
761.20,86.78893
761.40,86.77250
761.60,86.79236
761.80,86.79494
762.00,86.84322
762.20,86.74034
762.40,86.76029
762.60,86.85969
762.80,86.87224
763.00,86.78762
763.20,86.90080
763.40,86.95725
763.60,86.90547
763.80,86.87684
764.00,86.95117
764.20,86.91278
764.40,86.83928
764.60,86.81493
764.80,86.83553
765.00,86.78861
765.20,86.72931
765.40,86.77553
765.60,86.67006
765.80,86.65965
766.00,86.66101
766.20,86.70264
766.40,86.76012
766.60,86.85377
766.80,86.86616
767.00,86.92030
767.20,86.98012
767.40,86.83933
767.60,86.95973
767.80,86.92554
768.00,86.88554
768.20,86.81105
768.40,86.88744
768.60,86.78535
768.80,86.89604
769.00,86.95335
769.20,86.92604
769.40,86.84556
769.60,86.84337
769.80,86.78752
770.00,86.68034
770.20,86.69308
770.40,86.72493
770.60,86.78939
770.80,86.73148
771.00,86.74818
771.20,86.76121
771.40,86.73407
771.60,86.76720
771.80,86.75569
772.00,86.79068
772.20,86.79610
772.40,86.78001
772.60,86.79092
772.80,86.80477
773.00,86.82994
773.20,86.91273
773.40,87.02983
773.60,86.90540
773.80,86.91801
774.00,86.88378
774.20,86.69016
774.40,86.67858
774.60,86.68941
774.80,86.67739
775.00,86.68922
775.20,86.88583
775.40,86.83693
775.60,86.90259
775.80,86.93163
776.00,86.96187
776.20,86.86478
776.40,86.86144
776.60,86.78990
776.80,86.76666
777.00,86.69763
777.20,86.76825
777.40,86.83537
777.60,86.87266
777.80,86.85558
778.00,86.96802
778.20,86.95878
778.40,86.88674
778.60,86.83211
778.80,86.95011
779.00,86.86790
779.20,86.76155
779.40,86.87809
779.60,87.02117
779.80,87.00106
780.00,86.96988
780.20,87.10367
780.40,86.96715
780.60,86.82626
780.80,86.69546
781.00,86.75267
781.20,86.64129
781.40,86.59799
781.60,86.67306
781.80,86.70446
782.00,86.73877
782.20,86.82199
782.40,86.89961
782.60,86.88332
782.80,87.00289
783.00,86.96886
783.20,86.85471
783.40,86.84196
783.60,86.85966
783.80,86.77717
784.00,86.84238
784.20,87.04765
784.40,87.11580
784.60,87.01742
784.80,87.04278
785.00,86.99419
785.20,86.95744
785.40,86.81425
785.60,86.88448
785.80,86.79763
786.00,86.80785
786.20,86.77666
786.40,86.87156
786.60,86.87214
786.80,87.04275
787.00,87.00220
787.20,86.96854
787.40,86.96466
787.60,87.03072
787.80,86.94575
788.00,86.91847
788.20,86.89369
788.40,86.97155
788.60,86.97369
788.80,86.93826
789.00,86.90952
789.20,86.91471
789.40,86.80007
789.60,86.75629
789.80,86.79401
790.00,86.85568
790.20,86.95616
790.40,87.02989
790.60,86.97827
790.80,86.87395
791.00,86.91093
791.20,86.84094
791.40,86.76959
791.60,86.83071
791.80,86.79790
792.00,86.75066
792.20,86.76399
792.40,86.71580
792.60,86.68123
792.80,86.80373
793.00,86.74419
793.20,86.68678
793.40,86.77712
793.60,86.80745
793.80,86.79643
794.00,86.88270
794.20,86.88193
794.40,86.93333
794.60,86.95159
794.80,86.92892
795.00,86.93703
795.20,86.94188
795.40,86.97323
795.60,86.95651
795.80,87.10810
796.00,87.11088
796.20,87.19711
796.40,87.11616
796.60,87.08068
796.80,86.88954
797.00,86.86156
797.20,86.94006
797.40,86.97908
797.60,86.95008
797.80,87.06640
798.00,87.00106
798.20,86.72380
798.40,86.61062
798.60,86.64512
798.80,86.62071
799.00,86.66085
799.20,86.83097
799.40,86.96648
799.60,87.00708
799.80,87.02968
800.00,87.10256
