"Resin DP Sapphire Slow 2 - RawData"
"Wavelength nm.","T%"
200.00,79.35848
200.20,78.40562
200.40,78.14178
200.60,77.54967
200.80,77.56048
201.00,77.92798
201.20,78.27464
201.40,77.99956
201.60,77.94740
201.80,78.30471
202.00,78.19406
202.20,78.35516
202.40,78.42830
202.60,78.90202
202.80,78.56197
203.00,78.47774
203.20,78.79204
203.40,78.75549
203.60,78.18999
203.80,78.49998
204.00,78.92425
204.20,78.56799
204.40,79.37157
204.60,79.72691
204.80,79.69712
205.00,80.17284
205.20,80.49848
205.40,80.37406
205.60,80.47090
205.80,80.45455
206.00,80.71272
206.20,80.80083
206.40,81.03150
206.60,81.31196
206.80,81.57347
207.00,81.29701
207.20,81.15808
207.40,80.54970
207.60,80.55431
207.80,80.66878
208.00,80.51737
208.20,80.58502
208.40,80.82076
208.60,80.89997
208.80,80.45115
209.00,80.44195
209.20,80.46327
209.40,80.89344
209.60,80.63055
209.80,80.84752
210.00,81.01488
210.20,80.88660
210.40,80.24434
210.60,80.28204
210.80,80.33804
211.00,80.45924
211.20,80.66894
211.40,80.94007
211.60,81.33324
211.80,81.34488
212.00,81.21695
212.20,81.48639
212.40,81.47981
212.60,81.39489
212.80,81.52515
213.00,81.75312
213.20,81.40788
213.40,81.59245
213.60,81.25567
213.80,81.21147
214.00,81.10581
214.20,81.24221
214.40,81.07384
214.60,81.53234
214.80,81.49000
215.00,81.31377
215.20,81.48772
215.40,81.38458
215.60,81.17759
215.80,81.17251
216.00,81.44791
216.20,81.33733
216.40,81.64436
216.60,81.75972
216.80,81.79742
217.00,81.59231
217.20,81.59641
217.40,81.20376
217.60,81.30027
217.80,81.25427
218.00,81.49239
218.20,81.65596
218.40,82.05602
218.60,82.04164
218.80,81.98744
219.00,81.98681
219.20,81.83831
219.40,81.76025
219.60,81.75910
219.80,81.87144
220.00,81.73297
220.20,81.90988
220.40,81.77624
220.60,81.68868
220.80,81.68893
221.00,81.72609
221.20,81.69197
221.40,81.98411
221.60,82.18889
221.80,82.40578
222.00,82.40892
222.20,82.65560
222.40,82.49392
222.60,82.51877
222.80,82.54136
223.00,82.64403
223.20,82.53007
223.40,82.31252
223.60,82.17947
223.80,82.01019
224.00,82.01002
224.20,81.97909
224.40,82.28679
224.60,82.47694
224.80,82.58168
225.00,82.60252
225.20,82.51149
225.40,82.52921
225.60,82.70725
225.80,82.92271
226.00,83.12252
226.20,83.20593
226.40,83.34714
226.60,83.03770
226.80,82.98851
227.00,82.83342
227.20,82.94149
227.40,82.85741
227.60,82.99663
227.80,82.92644
228.00,83.00888
228.20,82.87560
228.40,82.85059
228.60,82.82683
228.80,82.91752
229.00,82.84101
229.20,82.88997
229.40,82.91628
229.60,82.96247
229.80,82.84978
230.00,82.98068
230.20,82.91306
230.40,82.92503
230.60,82.77491
230.80,82.98373
231.00,82.91597
231.20,83.09444
231.40,83.03688
231.60,83.15665
231.80,82.94043
232.00,83.01354
232.20,82.92499
232.40,83.03530
232.60,83.03314
232.80,83.16361
233.00,82.96731
233.20,83.13515
233.40,83.20152
233.60,83.26457
233.80,83.27464
234.00,83.53623
234.20,83.40997
234.40,83.38405
234.60,83.29424
234.80,83.38276
235.00,83.22237
235.20,83.39421
235.40,83.36009
235.60,83.37795
235.80,83.21874
236.00,83.37920
236.20,83.47310
236.40,83.58628
236.60,83.73573
236.80,83.85597
237.00,83.74119
237.20,83.57487
237.40,83.52705
237.60,83.44718
237.80,83.42680
238.00,83.52267
238.20,83.51710
238.40,83.55559
238.60,83.49153
238.80,83.51009
239.00,83.40494
239.20,83.33873
239.40,83.30696
239.60,83.50079
239.80,83.52542
240.00,83.61214
240.20,83.84114
240.40,83.84839
240.60,83.67166
240.80,83.66880
241.00,83.74345
241.20,83.67394
241.40,83.64163
241.60,83.56295
241.80,83.49295
242.00,83.46986
242.20,83.45194
242.40,83.39958
242.60,83.62252
242.80,83.70479
243.00,83.70467
243.20,83.71086
243.40,83.82037
243.60,83.79936
243.80,83.73467
244.00,83.74730
244.20,83.73459
244.40,83.80440
244.60,83.75778
244.80,83.84705
245.00,83.78876
245.20,83.78683
245.40,83.79524
245.60,83.83501
245.80,83.90040
246.00,84.03296
246.20,84.08180
246.40,84.05477
246.60,84.13022
246.80,84.09746
247.00,84.02827
247.20,84.09498
247.40,84.12461
247.60,83.90349
247.80,83.90245
248.00,83.90121
248.20,83.80781
248.40,83.80242
248.60,83.93430
248.80,83.90042
249.00,84.01503
249.20,84.12554
249.40,84.08275
249.60,83.97971
249.80,83.98638
250.00,83.87836
250.20,83.69317
250.40,83.72208
250.60,83.89360
250.80,83.89878
251.00,83.90113
251.20,84.05035
251.40,84.02917
251.60,83.96666
251.80,83.94271
252.00,83.90113
252.20,83.86585
252.40,83.92320
252.60,84.03090
252.80,84.09426
253.00,84.13910
253.20,84.08980
253.40,84.08602
253.60,84.13972
253.80,84.10486
254.00,84.17641
254.20,84.26414
254.40,84.26467
254.60,84.10047
254.80,84.04697
255.00,84.05915
255.20,84.08405
255.40,84.07763
255.60,84.24279
255.80,84.37481
256.00,84.33526
256.20,84.29652
256.40,84.26411
256.60,84.13861
256.80,84.08389
257.00,84.00305
257.20,83.97048
257.40,84.08197
257.60,84.02638
257.80,84.01016
258.00,84.10200
258.20,84.21285
258.40,84.10568
258.60,84.10073
258.80,84.13551
259.00,84.11762
259.20,83.97459
259.40,84.07530
259.60,84.15112
259.80,84.15415
260.00,84.24922
260.20,84.35699
260.40,84.30683
260.60,84.36146
260.80,84.40480
261.00,84.37073
261.20,84.38494
261.40,84.44173
261.60,84.39342
261.80,84.37682
262.00,84.39282
262.20,84.32719
262.40,84.25581
262.60,84.28146
262.80,84.14884
263.00,84.11555
263.20,84.14677
263.40,84.17204
263.60,84.16910
263.80,84.33312
264.00,84.42914
264.20,84.38507
264.40,84.38814
264.60,84.42233
264.80,84.42540
265.00,84.34072
265.20,84.38922
265.40,84.36606
265.60,84.34127
265.80,84.35252
266.00,84.36674
266.20,84.39043
266.40,84.42643
266.60,84.42488
266.80,84.44062
267.00,84.35665
267.20,84.33694
267.40,84.38908
267.60,84.48139
267.80,84.44866
268.00,84.60088
268.20,84.66081
268.40,84.65669
268.60,84.64735
268.80,84.57928
269.00,84.50429
269.20,84.38914
269.40,84.38503
269.60,84.32314
269.80,84.41193
270.00,84.42732
270.20,84.48843
270.40,84.49200
270.60,84.52079
270.80,84.50958
271.00,84.50990
271.20,84.53336
271.40,84.54391
271.60,84.51536
271.80,84.45972
272.00,84.53774
272.20,84.58615
272.40,84.61070
272.60,84.59353
272.80,84.66960
273.00,84.60622
273.20,84.49498
273.40,84.41179
273.60,84.45846
273.80,84.47976
274.00,84.43404
274.20,84.46248
274.40,84.51357
274.60,84.42522
274.80,84.36702
275.00,84.40053
275.20,84.41718
275.40,84.35516
275.60,84.47245
275.80,84.49838
276.00,84.49913
276.20,84.51046
276.40,84.55295
276.60,84.53335
276.80,84.46964
277.00,84.49605
277.20,84.57847
277.40,84.58558
277.60,84.56862
277.80,84.59212
278.00,84.59258
278.20,84.46922
278.40,84.41620
278.60,84.50040
278.80,84.61649
279.00,84.64331
279.20,84.66200
279.40,84.76833
279.60,84.74712
279.80,84.62960
280.00,84.49096
280.20,84.47500
280.40,84.49675
280.60,84.55702
280.80,84.55261
281.00,84.67842
281.20,84.79893
281.40,84.74764
281.60,84.60978
281.80,84.67298
282.00,84.66496
282.20,84.51020
282.40,84.51110
282.60,84.53519
282.80,84.42413
283.00,84.42613
283.20,84.56523
283.40,84.52712
283.60,84.59343
283.80,84.65663
284.00,84.56467
284.20,84.50511
284.40,84.48197
284.60,84.50006
284.80,84.59898
285.00,84.58452
285.20,84.65727
285.40,84.72559
285.60,84.67533
285.80,84.57491
286.00,84.69304
286.20,84.67306
286.40,84.66548
286.60,84.69761
286.80,84.75813
287.00,84.80476
287.20,84.82402
287.40,84.80996
287.60,84.74709
287.80,84.70273
288.00,84.66652
288.20,84.68301
288.40,84.71031
288.60,84.73287
288.80,84.80282
289.00,84.77494
289.20,84.80352
289.40,84.82240
289.60,84.80745
289.80,84.82045
290.00,84.90680
290.20,84.82422
290.40,84.82720
290.60,84.82568
290.80,84.82061
291.00,84.80346
291.20,84.74675
291.40,84.72760
291.60,84.80029
291.80,84.79111
292.00,84.76661
292.20,84.86260
292.40,84.91771
292.60,84.95584
292.80,84.93538
293.00,84.89285
293.20,84.86077
293.40,84.82510
293.60,84.70390
293.80,84.74404
294.00,84.73402
294.20,84.80900
294.40,84.83566
294.60,84.85295
294.80,84.80587
295.00,84.85339
295.20,84.87245
295.40,84.77855
295.60,84.80839
295.80,84.84261
296.00,84.92881
296.20,84.81546
296.40,84.89942
296.60,84.90145
296.80,84.91299
297.00,84.86252
297.20,84.88086
297.40,84.86568
297.60,84.86584
297.80,84.90195
298.00,84.83622
298.20,84.90104
298.40,84.88682
298.60,84.85206
298.80,84.89088
299.00,85.00900
299.20,85.07498
299.40,85.03111
299.60,85.00679
299.80,84.96236
300.00,84.94372
300.20,84.81296
300.40,84.78431
300.60,84.83366
300.80,84.78305
301.00,84.69864
301.20,84.68685
301.40,84.71786
301.60,84.82699
301.80,84.82468
302.00,84.87690
302.20,84.98701
302.40,85.08840
302.60,85.03281
302.80,85.06346
303.00,85.14392
303.20,85.13585
303.40,85.14680
303.60,85.17897
303.80,85.15476
304.00,85.06380
304.20,84.98968
304.40,84.98060
304.60,85.00293
304.80,85.01540
305.00,84.96706
305.20,85.00518
305.40,85.02064
305.60,84.96115
305.80,84.88369
306.00,84.83370
306.20,84.79789
306.40,84.64262
306.60,84.70837
306.80,84.68636
307.00,84.72884
307.20,84.83406
307.40,84.96436
307.60,84.91887
307.80,84.89368
308.00,84.98509
308.20,84.80825
308.40,84.77679
308.60,84.72537
308.80,84.76405
309.00,84.79469
309.20,84.84603
309.40,84.79391
309.60,84.85701
309.80,84.95525
310.00,84.93563
310.20,85.03835
310.40,85.08980
310.60,85.06578
310.80,85.01115
311.00,84.89311
311.20,84.75588
311.40,84.78714
311.60,84.78069
311.80,84.87452
312.00,84.96199
312.20,84.96380
312.40,84.93231
312.60,85.00578
312.80,84.83546
313.00,84.84951
313.20,84.95164
313.40,84.94220
313.60,84.81686
313.80,85.00612
314.00,84.90677
314.20,84.88307
314.40,84.92196
314.60,84.90403
314.80,84.87999
315.00,84.90132
315.20,84.91429
315.40,84.92720
315.60,84.99359
315.80,84.96408
316.00,84.97692
316.20,84.97963
316.40,84.93391
316.60,84.94075
316.80,85.02892
317.00,84.97461
317.20,84.97362
317.40,84.97425
317.60,84.92677
317.80,84.90110
318.00,85.00767
318.20,84.86894
318.40,84.88396
318.60,84.88011
318.80,84.72788
319.00,84.64108
319.20,84.76439
319.40,84.81726
319.60,84.93161
319.80,84.98720
320.00,84.85598
320.20,84.86171
320.40,84.88647
320.60,84.75543
320.80,84.86882
321.00,85.09132
321.20,85.18769
321.40,85.10423
321.60,85.03214
321.80,84.97469
322.00,84.92076
322.20,84.74870
322.40,84.72950
322.60,84.85250
322.80,84.89656
323.00,84.94056
323.20,85.02592
323.40,85.06251
323.60,85.05074
323.80,85.09611
324.00,85.14380
324.20,85.15800
324.40,85.15642
324.60,85.29262
324.80,85.26279
325.00,85.24852
325.20,85.30083
325.40,85.31458
325.60,85.28682
325.80,85.18974
326.00,85.16807
326.20,85.07971
326.40,85.07512
326.60,85.11012
326.80,85.10740
327.00,85.02952
327.20,85.05321
327.40,85.14126
327.60,85.02119
327.80,85.12909
328.00,85.23008
328.20,85.27889
328.40,85.21491
328.60,85.28496
328.80,85.25146
329.00,85.24492
329.20,85.19966
329.40,85.20744
329.60,85.31414
329.80,85.31462
330.00,85.32756
330.20,85.39217
330.40,85.26132
330.60,85.16062
330.80,85.19406
331.00,85.20622
331.20,85.15397
331.40,85.31508
331.60,85.25136
331.80,85.21047
332.00,85.16703
332.20,85.14002
332.40,85.06550
332.60,85.07817
332.80,85.07447
333.00,85.00418
333.20,85.02768
333.40,85.15701
333.60,85.17981
333.80,85.19225
334.00,85.23799
334.20,85.22721
334.40,85.14033
334.60,85.15646
334.80,85.19210
335.00,85.30349
335.20,85.36241
335.40,85.30028
335.60,85.36511
335.80,85.33570
336.00,85.27558
336.20,85.09017
336.40,85.18717
336.60,85.10377
336.80,85.03508
337.00,84.96825
337.20,85.18870
337.40,85.05652
337.60,85.07749
337.80,85.19216
338.00,85.29692
338.20,85.31450
338.40,85.44157
338.60,85.48079
338.80,85.33698
339.00,85.28612
339.20,85.30739
339.40,85.30274
339.60,85.08325
339.80,85.21003
340.00,85.30940
340.20,85.25273
340.40,85.24773
340.60,85.44165
340.80,85.40292
341.00,85.33284
341.20,85.29480
341.40,85.18378
341.60,85.07093
341.80,85.09777
342.00,85.18886
342.20,85.22101
342.40,85.35703
342.60,85.44191
342.80,85.43424
343.00,85.35097
343.20,85.36292
343.40,85.33611
343.60,85.34537
343.80,85.24839
344.00,85.15447
344.20,85.16634
344.40,85.08337
344.60,85.04004
344.80,85.09462
345.00,85.10067
345.20,85.04500
345.40,85.12932
345.60,85.18037
345.80,85.21366
346.00,85.28926
346.20,85.34954
346.40,85.28023
346.60,85.21394
346.80,85.22623
347.00,85.20141
347.20,85.15965
347.40,85.21239
347.60,85.30418
347.80,85.30581
348.00,85.33267
348.20,85.35439
348.40,85.38494
348.60,85.39715
348.80,85.34338
349.00,85.37464
349.20,85.36620
349.40,85.36873
349.60,85.35470
349.80,85.41897
350.00,85.36944
350.20,85.34019
350.40,85.35829
350.60,85.30110
350.80,85.32823
351.00,85.34994
351.20,85.32808
351.40,85.27015
351.60,85.26295
351.80,85.22426
352.00,85.25488
352.20,85.24086
352.40,85.19867
352.60,85.25788
352.80,85.19682
353.00,85.20845
353.20,85.28243
353.40,85.33902
353.60,85.36580
353.80,85.36363
354.00,85.36589
354.20,85.36675
354.40,85.38616
354.60,85.32994
354.80,85.37786
355.00,85.39358
355.20,85.35407
355.40,85.37755
355.60,85.39221
355.80,85.36863
356.00,85.34406
356.20,85.41884
356.40,85.31172
356.60,85.29546
356.80,85.35494
357.00,85.25493
357.20,85.19126
357.40,85.22082
357.60,85.21837
357.80,85.17807
358.00,85.31654
358.20,85.26864
358.40,85.36211
358.60,85.36908
358.80,85.31877
359.00,85.17607
359.20,85.14740
359.40,85.16093
359.60,85.13991
359.80,85.16807
360.00,85.28826
360.20,85.43899
360.40,85.30809
360.60,85.36832
360.80,85.37154
361.00,85.32237
361.20,85.24111
361.40,85.29251
361.60,85.21644
361.80,85.23171
362.00,85.26339
362.20,85.33347
362.40,85.29645
362.60,85.38357
362.80,85.41937
363.00,85.37457
363.20,85.26920
363.40,85.26164
363.60,85.22559
363.80,85.25432
364.00,85.27941
364.20,85.33604
364.40,85.39168
364.60,85.40489
364.80,85.38274
365.00,85.34507
365.20,85.33178
365.40,85.35628
365.60,85.27846
365.80,85.21578
366.00,85.22249
366.20,85.23116
366.40,85.15517
366.60,85.21663
366.80,85.26707
367.00,85.35331
367.20,85.36980
367.40,85.48143
367.60,85.46698
367.80,85.40492
368.00,85.33277
368.20,85.36388
368.40,85.39745
368.60,85.37287
368.80,85.41233
369.00,85.45685
369.20,85.40293
369.40,85.28590
369.60,85.41254
369.80,85.43348
370.00,85.50041
370.20,85.52773
370.40,85.61455
370.60,85.55639
370.80,85.54688
371.00,85.44982
371.20,85.45097
371.40,85.38911
371.60,85.34763
371.80,85.30278
372.00,85.27624
372.20,85.22459
372.40,85.19835
372.60,85.16897
372.80,85.19649
373.00,85.19838
373.20,85.23995
373.40,85.36731
373.60,85.44194
373.80,85.42479
374.00,85.44325
374.20,85.45055
374.40,85.40570
374.60,85.39943
374.80,85.42173
375.00,85.49085
375.20,85.53680
375.40,85.52772
375.60,85.59143
375.80,85.63778
376.00,85.60095
376.20,85.58535
376.40,85.54729
376.60,85.50990
376.80,85.46803
377.00,85.44275
377.20,85.39999
377.40,85.38316
377.60,85.38496
377.80,85.37837
378.00,85.39768
378.20,85.45647
378.40,85.48213
378.60,85.43578
378.80,85.46938
379.00,85.43013
379.20,85.44009
379.40,85.39510
379.60,85.39718
379.80,85.39444
380.00,85.40094
380.20,85.34986
380.40,85.40358
380.60,85.41355
380.80,85.42660
381.00,85.46184
381.20,85.46184
381.40,85.45278
381.60,85.45402
381.80,85.42412
382.00,85.47356
382.20,85.41061
382.40,85.38302
382.60,85.38883
382.80,85.38739
383.00,85.37787
383.20,85.42492
383.40,85.39878
383.60,85.37325
383.80,85.41820
384.00,85.40114
384.20,85.42050
384.40,85.51006
384.60,85.50575
384.80,85.49111
385.00,85.42132
385.20,85.41042
385.40,85.38616
385.60,85.38642
385.80,85.32341
386.00,85.37262
386.20,85.34642
386.40,85.41560
386.60,85.48176
386.80,85.58092
387.00,85.56574
387.20,85.59744
387.40,85.51665
387.60,85.45598
387.80,85.42324
388.00,85.46504
388.20,85.50063
388.40,85.48756
388.60,85.47918
388.80,85.47716
389.00,85.40159
389.20,85.35432
389.40,85.38772
389.60,85.41982
389.80,85.38857
390.00,85.43349
390.20,85.48985
390.40,85.49001
390.60,85.51621
390.80,85.53107
391.00,85.51875
391.20,85.45090
391.40,85.43707
391.60,85.38463
391.80,85.42505
392.00,85.42592
392.20,85.43544
392.40,85.44182
392.60,85.45887
392.80,85.42700
393.00,85.46678
393.20,85.48501
393.40,85.48077
393.60,85.48182
393.80,85.45317
394.00,85.42153
394.20,85.48042
394.40,85.46782
394.60,85.42598
394.80,85.40843
395.00,85.39247
395.20,85.32277
395.40,85.35588
395.60,85.39506
395.80,85.44812
396.00,85.46910
396.20,85.49982
396.40,85.57501
396.60,85.58568
396.80,85.55255
397.00,85.50210
397.20,85.48393
397.40,85.40376
397.60,85.41121
397.80,85.45206
398.00,85.51077
398.20,85.54524
398.40,85.55766
398.60,85.54903
398.80,85.53160
399.00,85.54989
399.20,85.53360
399.40,85.53248
399.60,85.52148
399.80,85.49848
400.00,85.47859
400.20,85.43990
400.40,85.43890
400.60,85.45433
400.80,85.45033
401.00,85.48983
401.20,85.44426
401.40,85.45033
401.60,85.46206
401.80,85.48723
402.00,85.45578
402.20,85.58170
402.40,85.54145
402.60,85.57741
402.80,85.58424
403.00,85.58061
403.20,85.55188
403.40,85.55050
403.60,85.50374
403.80,85.50423
404.00,85.53105
404.20,85.50209
404.40,85.55568
404.60,85.57090
404.80,85.61543
405.00,85.57710
405.20,85.57863
405.40,85.54228
405.60,85.48808
405.80,85.46699
406.00,85.45266
406.20,85.44728
406.40,85.47383
406.60,85.53625
406.80,85.49459
407.00,85.53438
407.20,85.54882
407.40,85.55559
407.60,85.54416
407.80,85.58333
408.00,85.52950
408.20,85.56494
408.40,85.47854
408.60,85.49855
408.80,85.47742
409.00,85.54332
409.20,85.52015
409.40,85.56829
409.60,85.53672
409.80,85.53342
410.00,85.56657
410.20,85.55998
410.40,85.53916
410.60,85.56767
410.80,85.54696
411.00,85.51086
411.20,85.51623
411.40,85.53860
411.60,85.55253
411.80,85.62739
412.00,85.62624
412.20,85.65672
412.40,85.68797
412.60,85.65806
412.80,85.58709
413.00,85.52219
413.20,85.47401
413.40,85.43003
413.60,85.39076
413.80,85.40643
414.00,85.45715
414.20,85.42841
414.40,85.46405
414.60,85.51082
414.80,85.52063
415.00,85.50262
415.20,85.55766
415.40,85.53780
415.60,85.52563
415.80,85.52477
416.00,85.55493
416.20,85.52364
416.40,85.53798
416.60,85.56914
416.80,85.57540
417.00,85.56586
417.20,85.57442
417.40,85.57079
417.60,85.53523
417.80,85.50043
418.00,85.48295
418.20,85.51507
418.40,85.50355
418.60,85.52543
418.80,85.57616
419.00,85.61240
419.20,85.60184
419.40,85.62664
419.60,85.59859
419.80,85.57087
420.00,85.53368
420.20,85.53316
420.40,85.49371
420.60,85.50688
420.80,85.52034
421.00,85.54543
421.20,85.53323
421.40,85.52943
421.60,85.56032
421.80,85.53505
422.00,85.53306
422.20,85.53023
422.40,85.54779
422.60,85.50670
422.80,85.53650
423.00,85.52467
423.20,85.52306
423.40,85.54649
423.60,85.57074
423.80,85.58437
424.00,85.59911
424.20,85.61655
424.40,85.63693
424.60,85.64149
424.80,85.59946
425.00,85.57963
425.20,85.58314
425.40,85.52771
425.60,85.52188
425.80,85.53709
426.00,85.52219
426.20,85.53003
426.40,85.59527
426.60,85.59698
426.80,85.58398
427.00,85.61065
427.20,85.59598
427.40,85.56246
427.60,85.54421
427.80,85.60854
428.00,85.60137
428.20,85.59906
428.40,85.61613
428.60,85.63735
428.80,85.57442
429.00,85.56113
429.20,85.54507
429.40,85.51995
429.60,85.51933
429.80,85.53296
430.00,85.56795
430.20,85.59359
430.40,85.60410
430.60,85.58418
430.80,85.59088
431.00,85.57464
431.20,85.54916
431.40,85.55973
431.60,85.60330
431.80,85.59954
432.00,85.66161
432.20,85.68535
432.40,85.65747
432.60,85.58761
432.80,85.58241
433.00,85.52324
433.20,85.52169
433.40,85.53510
433.60,85.57115
433.80,85.57096
434.00,85.57658
434.20,85.56277
434.40,85.56396
434.60,85.57176
434.80,85.55432
435.00,85.54338
435.20,85.56708
435.40,85.58418
435.60,85.60110
435.80,85.62725
436.00,85.65013
436.20,85.65135
436.40,85.62509
436.60,85.61513
436.80,85.61862
437.00,85.59473
437.20,85.55676
437.40,85.58332
437.60,85.59917
437.80,85.61904
438.00,85.62439
438.20,85.62309
438.40,85.63036
438.60,85.60975
438.80,85.58486
439.00,85.60106
439.20,85.64830
439.40,85.62217
439.60,85.64011
439.80,85.65124
440.00,85.65949
440.20,85.62728
440.40,85.63906
440.60,85.65177
440.80,85.63837
441.00,85.61829
441.20,85.62205
441.40,85.59111
441.60,85.55220
441.80,85.53981
442.00,85.53494
442.20,85.56871
442.40,85.57625
442.60,85.56575
442.80,85.57865
443.00,85.58902
443.20,85.55955
443.40,85.58702
443.60,85.60813
443.80,85.59706
444.00,85.59772
444.20,85.59221
444.40,85.60320
444.60,85.57165
444.80,85.60451
445.00,85.58936
445.20,85.59762
445.40,85.58668
445.60,85.63606
445.80,85.59644
446.00,85.59676
446.20,85.60936
446.40,85.59738
446.60,85.58713
446.80,85.61361
447.00,85.62063
447.20,85.61386
447.40,85.62714
447.60,85.63255
447.80,85.60358
448.00,85.60320
448.20,85.60650
448.40,85.60185
448.60,85.60001
448.80,85.61091
449.00,85.64382
449.20,85.63393
449.40,85.65365
449.60,85.61881
449.80,85.61930
450.00,85.59794
450.20,85.59368
450.40,85.56935
450.60,85.59700
450.80,85.62109
451.00,85.58524
451.20,85.59584
451.40,85.58720
451.60,85.59255
451.80,85.58670
452.00,85.61027
452.20,85.59463
452.40,85.61537
452.60,85.58604
452.80,85.61260
453.00,85.62897
453.20,85.64472
453.40,85.60960
453.60,85.65170
453.80,85.63217
454.00,85.63274
454.20,85.61677
454.40,85.66112
454.60,85.61009
454.80,85.59924
455.00,85.58753
455.20,85.61271
455.40,85.60864
455.60,85.61900
455.80,85.63961
456.00,85.64909
456.20,85.64192
456.40,85.65627
456.60,85.66595
456.80,85.65632
457.00,85.62890
457.20,85.63206
457.40,85.58341
457.60,85.59020
457.80,85.57045
458.00,85.59767
458.20,85.62085
458.40,85.63884
458.60,85.63114
458.80,85.64851
459.00,85.66248
459.20,85.64919
459.40,85.63904
459.60,85.64374
459.80,85.64541
460.00,85.61350
460.20,85.59828
460.40,85.63826
460.60,85.62192
460.80,85.63765
461.00,85.64398
461.20,85.63714
461.40,85.59819
461.60,85.62245
461.80,85.60257
462.00,85.60096
462.20,85.59988
462.40,85.59804
462.60,85.58559
462.80,85.56473
463.00,85.56907
463.20,85.58078
463.40,85.60404
463.60,85.59911
463.80,85.64840
464.00,85.66820
464.20,85.65053
464.40,85.66656
464.60,85.67982
464.80,85.63460
465.00,85.63346
465.20,85.64922
465.40,85.62559
465.60,85.61152
465.80,85.61115
466.00,85.59928
466.20,85.58760
466.40,85.57867
466.60,85.61423
466.80,85.64619
467.00,85.66003
467.20,85.66850
467.40,85.65971
467.60,85.66929
467.80,85.65807
468.00,85.64187
468.20,85.66030
468.40,85.69829
468.60,85.67677
468.80,85.67927
469.00,85.69740
469.20,85.66498
469.40,85.62692
469.60,85.59578
469.80,85.57857
470.00,85.55529
470.20,85.57546
470.40,85.61041
470.60,85.61884
470.80,85.62101
471.00,85.64102
471.20,85.62674
471.40,85.62892
471.60,85.63112
471.80,85.63522
472.00,85.63458
472.20,85.62364
472.40,85.58049
472.60,85.59688
472.80,85.60914
473.00,85.59879
473.20,85.59777
473.40,85.62497
473.60,85.62124
473.80,85.59187
474.00,85.57594
474.20,85.54481
474.40,85.54475
474.60,85.50493
474.80,85.53058
475.00,85.54161
475.20,85.58090
475.40,85.57831
475.60,85.64028
475.80,85.65363
476.00,85.65916
476.20,85.66163
476.40,85.67971
476.60,85.66288
476.80,85.63942
477.00,85.62696
477.20,85.63627
477.40,85.62233
477.60,85.61785
477.80,85.61311
478.00,85.62505
478.20,85.62531
478.40,85.63902
478.60,85.64487
478.80,85.66189
479.00,85.64427
479.20,85.62199
479.40,85.59695
479.60,85.59643
479.80,85.60688
480.00,85.59031
480.20,85.62858
480.40,85.64614
480.60,85.62922
480.80,85.61642
481.00,85.66288
481.20,85.65602
481.40,85.67680
481.60,85.68939
481.80,85.69311
482.00,85.71565
482.20,85.69145
482.40,85.66684
482.60,85.66862
482.80,85.66560
483.00,85.62481
483.20,85.64615
483.40,85.63992
483.60,85.65780
483.80,85.65658
484.00,85.68963
484.20,85.67080
484.40,85.68242
484.60,85.67410
484.80,85.66382
485.00,85.65470
485.20,85.67652
485.40,85.64650
485.60,85.65317
485.80,85.67608
486.00,85.68379
486.20,85.67314
486.40,85.70910
486.60,85.69126
486.80,85.68224
487.00,85.66388
487.20,85.66456
487.40,85.63682
487.60,85.62875
487.80,85.63959
488.00,85.63796
488.20,85.64448
488.40,85.68025
488.60,85.68034
488.80,85.68368
489.00,85.67064
489.20,85.66862
489.40,85.64352
489.60,85.65462
489.80,85.63028
490.00,85.65816
490.20,85.65931
490.40,85.68895
490.60,85.69924
490.80,85.73300
491.00,85.70548
491.20,85.72854
491.40,85.72206
491.60,85.71104
491.80,85.70102
492.00,85.71270
492.20,85.71609
492.40,85.69952
492.60,85.70420
492.80,85.68650
493.00,85.68859
493.20,85.67999
493.40,85.70634
493.60,85.71925
493.80,85.72739
494.00,85.72935
494.20,85.70287
494.40,85.66421
494.60,85.65943
494.80,85.67351
495.00,85.66864
495.20,85.67958
495.40,85.69914
495.60,85.68848
495.80,85.66168
496.00,85.64948
496.20,85.62765
496.40,85.64172
496.60,85.62090
496.80,85.62729
497.00,85.64189
497.20,85.64941
497.40,85.61688
497.60,85.64958
497.80,85.64957
498.00,85.63747
498.20,85.64656
498.40,85.68052
498.60,85.66017
498.80,85.68474
499.00,85.69627
499.20,85.70924
499.40,85.68931
499.60,85.71635
499.80,85.69581
500.00,85.67385
500.20,85.67131
500.40,85.65698
500.60,85.61865
500.80,85.62558
501.00,85.63573
501.20,85.64991
501.40,85.65774
501.60,85.70839
501.80,85.68823
502.00,85.69804
502.20,85.69744
502.40,85.70233
502.60,85.68903
502.80,85.69977
503.00,85.71834
503.20,85.70229
503.40,85.67606
503.60,85.65418
503.80,85.64249
504.00,85.63536
504.20,85.63747
504.40,85.68928
504.60,85.68575
504.80,85.71439
505.00,85.73046
505.20,85.74184
505.40,85.72821
505.60,85.74739
505.80,85.74639
506.00,85.74851
506.20,85.71483
506.40,85.70008
506.60,85.68153
506.80,85.67929
507.00,85.63195
507.20,85.63319
507.40,85.62276
507.60,85.63713
507.80,85.63793
508.00,85.66660
508.20,85.68962
508.40,85.66524
508.60,85.66086
508.80,85.65010
509.00,85.65162
509.20,85.65446
509.40,85.68856
509.60,85.71707
509.80,85.70514
510.00,85.69053
510.20,85.67808
510.40,85.68884
510.60,85.65540
510.80,85.65690
511.00,85.66583
511.20,85.64834
511.40,85.64178
511.60,85.65041
511.80,85.63968
512.00,85.64224
512.20,85.66300
512.40,85.67433
512.60,85.65571
512.80,85.69043
513.00,85.66045
513.20,85.66232
513.40,85.65401
513.60,85.69862
513.80,85.69462
514.00,85.73992
514.20,85.72766
514.40,85.72816
514.60,85.73247
514.80,85.71689
515.00,85.69085
515.20,85.70750
515.40,85.70644
515.60,85.69219
515.80,85.68717
516.00,85.69731
516.20,85.71966
516.40,85.71586
516.60,85.71358
516.80,85.72206
517.00,85.70551
517.20,85.66576
517.40,85.67696
517.60,85.68028
517.80,85.69793
518.00,85.70101
518.20,85.73936
518.40,85.74586
518.60,85.74592
518.80,85.74415
519.00,85.74824
519.20,85.72354
519.40,85.70625
519.60,85.68417
519.80,85.65524
520.00,85.66006
520.20,85.64894
520.40,85.63048
520.60,85.64802
520.80,85.68166
521.00,85.68221
521.20,85.71281
521.40,85.73738
521.60,85.74095
521.80,85.71364
522.00,85.71214
522.20,85.70121
522.40,85.68553
522.60,85.67389
522.80,85.69004
523.00,85.70853
523.20,85.69688
523.40,85.69701
523.60,85.70610
523.80,85.70827
524.00,85.69154
524.20,85.67448
524.40,85.67300
524.60,85.65890
524.80,85.64994
525.00,85.66592
525.20,85.69414
525.40,85.73772
525.60,85.74524
525.80,85.75652
526.00,85.73312
526.20,85.72221
526.40,85.68229
526.60,85.67095
526.80,85.66034
527.00,85.63488
527.20,85.64153
527.40,85.63655
527.60,85.65636
527.80,85.65208
528.00,85.67810
528.20,85.66889
528.40,85.70284
528.60,85.70772
528.80,85.72638
529.00,85.71261
529.20,85.73220
529.40,85.72508
529.60,85.69742
529.80,85.68199
530.00,85.73052
530.20,85.72502
530.40,85.69567
530.60,85.71330
530.80,85.70557
531.00,85.68693
531.20,85.68494
531.40,85.69185
531.60,85.68372
531.80,85.69829
532.00,85.69229
532.20,85.69612
532.40,85.70074
532.60,85.70995
532.80,85.69480
533.00,85.67843
533.20,85.66629
533.40,85.68687
533.60,85.67749
533.80,85.67909
534.00,85.68786
534.20,85.71061
534.40,85.67048
534.60,85.67586
534.80,85.70305
535.00,85.70945
535.20,85.70369
535.40,85.71894
535.60,85.74207
535.80,85.73829
536.00,85.75587
536.20,85.77574
536.40,85.78520
536.60,85.76426
536.80,85.75696
537.00,85.73489
537.20,85.70727
537.40,85.71284
537.60,85.70879
537.80,85.68292
538.00,85.73018
538.20,85.72155
538.40,85.72490
538.60,85.73551
538.80,85.75045
539.00,85.70657
539.20,85.71678
539.40,85.72358
539.60,85.72243
539.80,85.75208
540.00,85.77622
540.20,85.77825
540.40,85.76770
540.60,85.76924
540.80,85.76024
541.00,85.76952
541.20,85.75584
541.40,85.74538
541.60,85.74063
541.80,85.73454
542.00,85.69682
542.20,85.70717
542.40,85.72505
542.60,85.73380
542.80,85.75354
543.00,85.77492
543.20,85.80475
543.40,85.81775
543.60,85.83006
543.80,85.78954
544.00,85.80861
544.20,85.75683
544.40,85.75118
544.60,85.72323
544.80,85.71358
545.00,85.68373
545.20,85.71702
545.40,85.68470
545.60,85.69912
545.80,85.72464
546.00,85.73052
546.20,85.71230
546.40,85.72680
546.60,85.72600
546.80,85.73076
547.00,85.70488
547.20,85.69587
547.40,85.69407
547.60,85.71805
547.80,85.74016
548.00,85.76522
548.20,85.80320
548.40,85.83264
548.60,85.79448
548.80,85.77821
549.00,85.80140
549.20,85.78703
549.40,85.77519
549.60,85.80343
549.80,85.80414
550.00,85.77473
550.20,85.79888
550.40,85.77937
550.60,85.77733
550.80,85.78019
551.00,85.80181
551.20,85.77855
551.40,85.77181
551.60,85.76396
551.80,85.76873
552.00,85.77328
552.20,85.77918
552.40,85.79555
552.60,85.77667
552.80,85.74041
553.00,85.70949
553.20,85.69374
553.40,85.68771
553.60,85.70392
553.80,85.71684
554.00,85.71662
554.20,85.73565
554.40,85.73899
554.60,85.71450
554.80,85.75509
555.00,85.77341
555.20,85.77895
555.40,85.78999
555.60,85.80889
555.80,85.79657
556.00,85.78598
556.20,85.77078
556.40,85.79638
556.60,85.80709
556.80,85.79532
557.00,85.80192
557.20,85.81527
557.40,85.77313
557.60,85.75702
557.80,85.74079
558.00,85.73871
558.20,85.71391
558.40,85.75215
558.60,85.73107
558.80,85.72421
559.00,85.74254
559.20,85.74263
559.40,85.72728
559.60,85.75649
559.80,85.77787
560.00,85.75802
560.20,85.77434
560.40,85.76464
560.60,85.73242
560.80,85.70849
561.00,85.70231
561.20,85.69066
561.40,85.67652
561.60,85.69112
561.80,85.71426
562.00,85.73290
562.20,85.74175
562.40,85.74859
562.60,85.74074
562.80,85.72865
563.00,85.70656
563.20,85.70425
563.40,85.71617
563.60,85.74876
563.80,85.74721
564.00,85.75575
564.20,85.76235
564.40,85.75365
564.60,85.72731
564.80,85.71075
565.00,85.72561
565.20,85.73431
565.40,85.73127
565.60,85.73027
565.80,85.75343
566.00,85.74744
566.20,85.72131
566.40,85.71995
566.60,85.74284
566.80,85.73753
567.00,85.73934
567.20,85.75606
567.40,85.74747
567.60,85.75852
567.80,85.78109
568.00,85.75568
568.20,85.74271
568.40,85.77345
568.60,85.76055
568.80,85.75819
569.00,85.77120
569.20,85.74740
569.40,85.72455
569.60,85.73923
569.80,85.70701
570.00,85.68144
570.20,85.69930
570.40,85.71727
570.60,85.68053
570.80,85.68046
571.00,85.68971
571.20,85.71217
571.40,85.72514
571.60,85.74598
571.80,85.75908
572.00,85.78200
572.20,85.77036
572.40,85.74318
572.60,85.75066
572.80,85.73574
573.00,85.74654
573.20,85.71993
573.40,85.71987
573.60,85.72462
573.80,85.76756
574.00,85.74018
574.20,85.75939
574.40,85.76578
574.60,85.75826
574.80,85.72487
575.00,85.73942
575.20,85.75734
575.40,85.74206
575.60,85.74893
575.80,85.76764
576.00,85.74967
576.20,85.75077
576.40,85.75374
576.60,85.72859
576.80,85.72658
577.00,85.73208
577.20,85.71614
577.40,85.72954
577.60,85.72499
577.80,85.73006
578.00,85.75379
578.20,85.77691
578.40,85.77884
578.60,85.81331
578.80,85.80412
579.00,85.80371
579.20,85.77386
579.40,85.75428
579.60,85.72936
579.80,85.73619
580.00,85.73572
580.20,85.75227
580.40,85.75280
580.60,85.77181
580.80,85.74435
581.00,85.73753
581.20,85.71067
581.40,85.72161
581.60,85.71606
581.80,85.71481
582.00,85.72598
582.20,85.76872
582.40,85.76538
582.60,85.75580
582.80,85.77039
583.00,85.76556
583.20,85.72363
583.40,85.72505
583.60,85.73424
583.80,85.75530
584.00,85.76176
584.20,85.79410
584.40,85.80176
584.60,85.79410
584.80,85.77876
585.00,85.77263
585.20,85.78502
585.40,85.79332
585.60,85.78674
585.80,85.79099
586.00,85.77582
586.20,85.76111
586.40,85.75664
586.60,85.77179
586.80,85.76167
587.00,85.78652
587.20,85.78639
587.40,85.78072
587.60,85.76643
587.80,85.79344
588.00,85.75588
588.20,85.73161
588.40,85.74458
588.60,85.76977
588.80,85.74276
589.00,85.76581
589.20,85.79487
589.40,85.78889
589.60,85.78448
589.80,85.78961
590.00,85.78745
590.20,85.76744
590.40,85.76279
590.60,85.73897
590.80,85.75059
591.00,85.78139
591.20,85.77765
591.40,85.79609
591.60,85.80605
591.80,85.81843
592.00,85.77777
592.20,85.81042
592.40,85.77620
592.60,85.76846
592.80,85.76641
593.00,85.78069
593.20,85.74779
593.40,85.74519
593.60,85.74134
593.80,85.76549
594.00,85.74638
594.20,85.75798
594.40,85.80881
594.60,85.82404
594.80,85.78486
595.00,85.81281
595.20,85.81231
595.40,85.77361
595.60,85.78188
595.80,85.78281
596.00,85.77651
596.20,85.80244
596.40,85.82308
596.60,85.82467
596.80,85.84852
597.00,85.82892
597.20,85.79823
597.40,85.80549
597.60,85.82841
597.80,85.78954
598.00,85.81741
598.20,85.85314
598.40,85.83824
598.60,85.84567
598.80,85.85644
599.00,85.85164
599.20,85.83547
599.40,85.83039
599.60,85.82477
599.80,85.81064
600.00,85.79161
600.20,85.79703
600.40,85.81467
600.60,85.78541
600.80,85.81402
601.00,85.84133
601.20,85.84297
601.40,85.82774
601.60,85.82937
601.80,85.83344
602.00,85.84685
602.20,85.84908
602.40,85.86712
602.60,85.86746
602.80,85.84374
603.00,85.80207
603.20,85.80015
603.40,85.80660
603.60,85.79883
603.80,85.80644
604.00,85.79004
604.20,85.76922
604.40,85.73851
604.60,85.74156
604.80,85.73633
605.00,85.77578
605.20,85.76116
605.40,85.77439
605.60,85.77058
605.80,85.77304
606.00,85.76717
606.20,85.80306
606.40,85.80664
606.60,85.82954
606.80,85.85350
607.00,85.81583
607.20,85.78252
607.40,85.77295
607.60,85.75974
607.80,85.73660
608.00,85.74404
608.20,85.74409
608.40,85.73833
608.60,85.75431
608.80,85.75370
609.00,85.79314
609.20,85.81841
609.40,85.84529
609.60,85.83720
609.80,85.84846
610.00,85.86251
610.20,85.84203
610.40,85.79805
610.60,85.76981
610.80,85.77527
611.00,85.74839
611.20,85.77935
611.40,85.79791
611.60,85.80274
611.80,85.79624
612.00,85.78892
612.20,85.75106
612.40,85.75875
612.60,85.76712
612.80,85.74879
613.00,85.78559
613.20,85.79122
613.40,85.81477
613.60,85.84523
613.80,85.85145
614.00,85.81874
614.20,85.81960
614.40,85.79033
614.60,85.75792
614.80,85.78794
615.00,85.79689
615.20,85.82217
615.40,85.81592
615.60,85.79295
615.80,85.78044
616.00,85.74952
616.20,85.74126
616.40,85.77118
616.60,85.82369
616.80,85.79602
617.00,85.80360
617.20,85.78371
617.40,85.77113
617.60,85.73765
617.80,85.74852
618.00,85.76744
618.20,85.76005
618.40,85.72795
618.60,85.72218
618.80,85.73701
619.00,85.70336
619.20,85.72170
619.40,85.75948
619.60,85.76369
619.80,85.73382
620.00,85.77331
620.20,85.74987
620.40,85.75797
620.60,85.76267
620.80,85.78156
621.00,85.76047
621.20,85.79015
621.40,85.77839
621.60,85.76772
621.80,85.75819
622.00,85.74908
622.20,85.73183
622.40,85.69426
622.60,85.68922
622.80,85.70841
623.00,85.71786
623.20,85.74326
623.40,85.78465
623.60,85.81136
623.80,85.80630
624.00,85.82469
624.20,85.80544
624.40,85.77724
624.60,85.76908
624.80,85.76500
625.00,85.75844
625.20,85.76113
625.40,85.78317
625.60,85.78649
625.80,85.79596
626.00,85.80789
626.20,85.80055
626.40,85.80153
626.60,85.79304
626.80,85.80401
627.00,85.81496
627.20,85.80902
627.40,85.77571
627.60,85.79662
627.80,85.75108
628.00,85.73038
628.20,85.73967
628.40,85.77451
628.60,85.78944
628.80,85.80759
629.00,85.78342
629.20,85.82019
629.40,85.79301
629.60,85.78930
629.80,85.83469
630.00,85.89157
630.20,85.86275
630.40,85.87058
630.60,85.83611
630.80,85.78481
631.00,85.74581
631.20,85.72741
631.40,85.74082
631.60,85.74098
631.80,85.77358
632.00,85.77108
632.20,85.80952
632.40,85.79573
632.60,85.80102
632.80,85.77123
633.00,85.78396
633.20,85.77240
633.40,85.76351
633.60,85.75178
633.80,85.76630
634.00,85.76993
634.20,85.76296
634.40,85.79066
634.60,85.78699
634.80,85.77678
635.00,85.77893
635.20,85.76218
635.40,85.76195
635.60,85.77169
635.80,85.76314
636.00,85.75215
636.20,85.77017
636.40,85.75393
636.60,85.73388
636.80,85.76357
637.00,85.76794
637.20,85.77159
637.40,85.77229
637.60,85.81827
637.80,85.78355
638.00,85.79331
638.20,85.79956
638.40,85.83065
638.60,85.77986
638.80,85.80962
639.00,85.78417
639.20,85.74546
639.40,85.72783
639.60,85.75771
639.80,85.74464
640.00,85.75017
640.20,85.76861
640.40,85.74846
640.60,85.74418
640.80,85.73726
641.00,85.73055
641.20,85.74407
641.40,85.75633
641.60,85.74913
641.80,85.74861
642.00,85.77115
642.20,85.75136
642.40,85.72516
642.60,85.74434
642.80,85.75502
643.00,85.74876
643.20,85.76329
643.40,85.79169
643.60,85.78914
643.80,85.76965
644.00,85.77977
644.20,85.77963
644.40,85.76600
644.60,85.76357
644.80,85.76488
645.00,85.72780
645.20,85.70462
645.40,85.69684
645.60,85.67269
645.80,85.68083
646.00,85.71721
646.20,85.72468
646.40,85.75304
646.60,85.74409
646.80,85.77224
647.00,85.78279
647.20,85.77741
647.40,85.77492
647.60,85.79151
647.80,85.78823
648.00,85.74980
648.20,85.76973
648.40,85.78238
648.60,85.78670
648.80,85.73900
649.00,85.77238
649.20,85.77102
649.40,85.76036
649.60,85.76660
649.80,85.79521
650.00,85.76669
650.20,85.73450
650.40,85.72829
650.60,85.75236
650.80,85.73701
651.00,85.73849
651.20,85.79216
651.40,85.78282
651.60,85.79003
651.80,85.78563
652.00,85.79963
652.20,85.76898
652.40,85.78749
652.60,85.75993
652.80,85.79497
653.00,85.80553
653.20,85.79532
653.40,85.76076
653.60,85.76820
653.80,85.72410
654.00,85.72230
654.20,85.74587
654.40,85.77898
654.60,85.74404
654.80,85.78451
655.00,85.74919
655.20,85.75897
655.40,85.77160
655.60,85.78920
655.80,85.74317
656.00,85.74323
656.20,85.73305
656.40,85.73970
656.60,85.76116
656.80,85.83918
657.00,85.87865
657.20,85.86824
657.40,85.82289
657.60,85.80530
657.80,85.75916
658.00,85.71492
658.20,85.71336
658.40,85.71407
658.60,85.73753
658.80,85.76499
659.00,85.77091
659.20,85.77572
659.40,85.78488
659.60,85.75032
659.80,85.72406
660.00,85.71814
660.20,85.72906
660.40,85.71129
660.60,85.70363
660.80,85.70765
661.00,85.72685
661.20,85.71436
661.40,85.72993
661.60,85.76704
661.80,85.78737
662.00,85.78275
662.20,85.77648
662.40,85.78213
662.60,85.76201
662.80,85.74813
663.00,85.75594
663.20,85.75906
663.40,85.74278
663.60,85.75153
663.80,85.74971
664.00,85.77598
664.20,85.79304
664.40,85.78919
664.60,85.79198
664.80,85.78897
665.00,85.76203
665.20,85.75395
665.40,85.76210
665.60,85.75909
665.80,85.75011
666.00,85.75014
666.20,85.74927
666.40,85.76664
666.60,85.76102
666.80,85.78831
667.00,85.78269
667.20,85.76772
667.40,85.75970
667.60,85.75890
667.80,85.73065
668.00,85.69005
668.20,85.69249
668.40,85.70213
668.60,85.72198
668.80,85.72764
669.00,85.77366
669.20,85.77706
669.40,85.74620
669.60,85.72924
669.80,85.74433
670.00,85.72015
670.20,85.74199
670.40,85.78538
670.60,85.80739
670.80,85.79853
671.00,85.86847
671.20,85.81848
671.40,85.81585
671.60,85.79490
671.80,85.81323
672.00,85.72279
672.20,85.76826
672.40,85.73633
672.60,85.73278
672.80,85.67287
673.00,85.70745
673.20,85.70044
673.40,85.69134
673.60,85.70079
673.80,85.72969
674.00,85.71185
674.20,85.77374
674.40,85.79767
674.60,85.76543
674.80,85.80552
675.00,85.82173
675.20,85.72050
675.40,85.71880
675.60,85.72162
675.80,85.74254
676.00,85.76341
676.20,85.81309
676.40,85.82799
676.60,85.82671
676.80,85.75307
677.00,85.73622
677.20,85.74960
677.40,85.75510
677.60,85.75952
677.80,85.78203
678.00,85.77085
678.20,85.73881
678.40,85.69896
678.60,85.72164
678.80,85.74208
679.00,85.74672
679.20,85.78694
679.40,85.82689
679.60,85.84087
679.80,85.82311
680.00,85.83546
680.20,85.82661
680.40,85.79158
680.60,85.78653
680.80,85.79335
681.00,85.83150
681.20,85.78014
681.40,85.78066
681.60,85.79807
681.80,85.81510
682.00,85.78267
682.20,85.81395
682.40,85.84804
682.60,85.79689
682.80,85.78028
683.00,85.81307
683.20,85.78136
683.40,85.74393
683.60,85.76691
683.80,85.76831
684.00,85.70640
684.20,85.74603
684.40,85.76292
684.60,85.77681
684.80,85.79989
685.00,85.80262
685.20,85.80664
685.40,85.79488
685.60,85.79494
685.80,85.76906
686.00,85.77617
686.20,85.78548
686.40,85.83993
686.60,85.82397
686.80,85.84777
687.00,85.86781
687.20,85.89369
687.40,85.85809
687.60,85.85998
687.80,85.84657
688.00,85.86361
688.20,85.82625
688.40,85.83864
688.60,85.88497
688.80,85.88039
689.00,85.89561
689.20,85.91216
689.40,85.94897
689.60,85.94418
689.80,85.96764
690.00,85.93832
690.20,85.92317
690.40,85.89981
690.60,85.88075
690.80,85.88566
691.00,85.87921
691.20,85.89613
691.40,85.90349
691.60,85.93045
691.80,85.95494
692.00,85.98289
692.20,85.96126
692.40,85.91630
692.60,85.91132
692.80,85.88477
693.00,85.91982
693.20,85.91856
693.40,85.97862
693.60,86.01837
693.80,86.03158
694.00,86.01860
694.20,86.07280
694.40,86.03630
694.60,85.98608
694.80,85.95968
695.00,85.94173
695.20,85.89225
695.40,85.91390
695.60,85.90956
695.80,85.89455
696.00,85.92056
696.20,85.98264
696.40,85.96578
696.60,85.98984
696.80,86.01777
697.00,85.99718
697.20,86.02289
697.40,86.07590
697.60,86.05708
697.80,86.05298
698.00,86.06557
698.20,85.99821
698.40,85.94965
698.60,85.97282
698.80,86.04940
699.00,86.03699
699.20,86.07795
699.40,86.12379
699.60,86.09999
699.80,86.08658
700.00,86.12999
700.20,86.12862
700.40,86.10771
700.60,86.09104
700.80,86.05376
701.00,86.04101
701.20,86.03643
701.40,86.05184
701.60,86.07286
701.80,86.04041
702.00,85.99966
702.20,85.95985
702.40,86.00065
702.60,86.00644
702.80,86.06201
703.00,86.08398
703.20,86.14781
703.40,86.10600
703.60,86.16891
703.80,86.14888
704.00,86.18850
704.20,86.14308
704.40,86.17393
704.60,86.17202
704.80,86.18583
705.00,86.17546
705.20,86.15822
705.40,86.18184
705.60,86.13179
705.80,86.12677
706.00,86.13380
706.20,86.20821
706.40,86.18010
706.60,86.20779
706.80,86.26448
707.00,86.26454
707.20,86.21507
707.40,86.21257
707.60,86.22730
707.80,86.13843
708.00,86.13613
708.20,86.15699
708.40,86.13094
708.60,86.06991
708.80,86.05963
709.00,86.04826
709.20,86.06312
709.40,86.14247
709.60,86.17540
709.80,86.21861
710.00,86.20870
710.20,86.21053
710.40,86.16234
710.60,86.17369
710.80,86.19109
711.00,86.23148
711.20,86.24189
711.40,86.26426
711.60,86.36088
711.80,86.35142
712.00,86.37880
712.20,86.37286
712.40,86.32390
712.60,86.28567
712.80,86.29537
713.00,86.25777
713.20,86.27493
713.40,86.31956
713.60,86.28850
713.80,86.27727
714.00,86.29341
714.20,86.22133
714.40,86.18194
714.60,86.22504
714.80,86.26530
715.00,86.28223
715.20,86.38551
715.40,86.36816
715.60,86.36473
715.80,86.33505
716.00,86.31417
716.20,86.25851
716.40,86.32654
716.60,86.30177
716.80,86.33568
717.00,86.32651
717.20,86.35786
717.40,86.37319
717.60,86.40166
717.80,86.35347
718.00,86.37685
718.20,86.39343
718.40,86.41426
718.60,86.36561
718.80,86.45111
719.00,86.45012
719.20,86.41129
719.40,86.39006
719.60,86.36876
719.80,86.30984
720.00,86.24961
720.20,86.30305
720.40,86.29985
720.60,86.31393
720.80,86.33150
721.00,86.46100
721.20,86.43859
721.40,86.40738
721.60,86.43744
721.80,86.43101
722.00,86.40740
722.20,86.39639
722.40,86.40726
722.60,86.43745
722.80,86.49285
723.00,86.48545
723.20,86.50796
723.40,86.49196
723.60,86.46559
723.80,86.40622
724.00,86.41003
724.20,86.40457
724.40,86.47217
724.60,86.48207
724.80,86.49033
725.00,86.50719
725.20,86.50652
725.40,86.47270
725.60,86.44201
725.80,86.43150
726.00,86.41399
726.20,86.44036
726.40,86.45574
726.60,86.52152
726.80,86.52726
727.00,86.50494
727.20,86.45473
727.40,86.44984
727.60,86.43153
727.80,86.41475
728.00,86.44345
728.20,86.48805
728.40,86.49835
728.60,86.46001
728.80,86.51549
729.00,86.49333
729.20,86.50110
729.40,86.50908
729.60,86.55229
729.80,86.57724
730.00,86.53175
730.20,86.52739
730.40,86.45282
730.60,86.44011
730.80,86.43962
731.00,86.53178
731.20,86.49564
731.40,86.53433
731.60,86.54925
731.80,86.56580
732.00,86.54861
732.20,86.58451
732.40,86.63730
732.60,86.69420
732.80,86.70090
733.00,86.68151
733.20,86.68233
733.40,86.70441
733.60,86.61861
733.80,86.56044
734.00,86.54934
734.20,86.55164
734.40,86.52935
734.60,86.52151
734.80,86.54395
735.00,86.57274
735.20,86.58275
735.40,86.55086
735.60,86.59627
735.80,86.60871
736.00,86.66801
736.20,86.63336
736.40,86.62916
736.60,86.58714
736.80,86.63490
737.00,86.59108
737.20,86.68888
737.40,86.76531
737.60,86.79197
737.80,86.74623
738.00,86.79057
738.20,86.74194
738.40,86.63851
738.60,86.64345
738.80,86.64439
739.00,86.58260
739.20,86.53162
739.40,86.56608
739.60,86.54594
739.80,86.51935
740.00,86.54839
740.20,86.60763
740.40,86.65621
740.60,86.68785
740.80,86.68727
741.00,86.70409
741.20,86.67001
741.40,86.64811
741.60,86.65445
741.80,86.67500
742.00,86.58205
742.20,86.56352
742.40,86.46611
742.60,86.43278
742.80,86.44853
743.00,86.52983
743.20,86.58303
743.40,86.65071
743.60,86.71309
743.80,86.69512
744.00,86.58990
744.20,86.54010
744.40,86.58071
744.60,86.51991
744.80,86.47822
745.00,86.54177
745.20,86.52546
745.40,86.55178
745.60,86.56295
745.80,86.59667
746.00,86.53911
746.20,86.56207
746.40,86.52828
746.60,86.54816
746.80,86.57719
747.00,86.61286
747.20,86.56215
747.40,86.51686
747.60,86.41317
747.80,86.41460
748.00,86.43974
748.20,86.55409
748.40,86.58639
748.60,86.69689
748.80,86.64510
749.00,86.64143
749.20,86.55075
749.40,86.56884
749.60,86.54738
749.80,86.60076
750.00,86.65420
750.20,86.71237
750.40,86.69674
750.60,86.71439
750.80,86.65996
751.00,86.65325
751.20,86.65483
751.40,86.66192
751.60,86.65308
751.80,86.74886
752.00,86.71215
752.20,86.69429
752.40,86.63322
752.60,86.63753
752.80,86.55102
753.00,86.57472
753.20,86.62158
753.40,86.65820
753.60,86.65540
753.80,86.69279
754.00,86.59177
754.20,86.55863
754.40,86.54569
754.60,86.54954
754.80,86.46235
755.00,86.42393
755.20,86.43709
755.40,86.48818
755.60,86.47968
755.80,86.56158
756.00,86.67741
756.20,86.67659
756.40,86.66230
756.60,86.70626
756.80,86.73553
757.00,86.77433
757.20,86.82258
757.40,86.88886
757.60,86.82442
757.80,86.79017
758.00,86.79196
758.20,86.72497
758.40,86.72082
758.60,86.80488
758.80,86.78406
759.00,86.77819
759.20,86.89382
759.40,86.91726
759.60,86.86796
759.80,86.91118
760.00,86.79045
760.20,86.64657
760.40,86.57579
760.60,86.47948
760.80,86.44214
761.00,86.44660
761.20,86.45357
761.40,86.45546
761.60,86.49142
761.80,86.55096
762.00,86.70771
762.20,86.77156
762.40,86.73539
762.60,86.83605
762.80,86.74082
763.00,86.63906
763.20,86.58512
763.40,86.61557
763.60,86.62782
763.80,86.64662
764.00,86.69530
764.20,86.65196
764.40,86.64930
764.60,86.56785
764.80,86.57137
765.00,86.54616
765.20,86.62392
765.40,86.62439
765.60,86.53802
765.80,86.53823
766.00,86.58647
766.20,86.57452
766.40,86.56104
766.60,86.64442
766.80,86.68513
767.00,86.65166
767.20,86.64828
767.40,86.63738
767.60,86.75947
767.80,86.77173
768.00,86.80918
768.20,86.76341
768.40,86.81497
768.60,86.68319
768.80,86.70042
769.00,86.62806
769.20,86.68357
769.40,86.63463
769.60,86.66044
769.80,86.60925
770.00,86.53738
770.20,86.49803
770.40,86.48129
770.60,86.45191
770.80,86.36581
771.00,86.48651
771.20,86.51255
771.40,86.51023
771.60,86.53559
771.80,86.61592
772.00,86.58279
772.20,86.55635
772.40,86.58537
772.60,86.66039
772.80,86.69207
773.00,86.73283
773.20,86.70156
773.40,86.76888
773.60,86.69518
773.80,86.76227
774.00,86.72518
774.20,86.73341
774.40,86.72139
774.60,86.76298
774.80,86.66061
775.00,86.66001
775.20,86.78011
775.40,86.70113
775.60,86.70471
775.80,86.79014
776.00,86.85825
776.20,86.74424
776.40,86.73363
776.60,86.67805
776.80,86.63623
777.00,86.56731
777.20,86.60594
777.40,86.63366
777.60,86.65679
777.80,86.64448
778.00,86.72721
778.20,86.68995
778.40,86.68876
778.60,86.61665
778.80,86.65245
779.00,86.59380
779.20,86.60313
779.40,86.64507
779.60,86.73303
779.80,86.65690
780.00,86.57120
780.20,86.58728
780.40,86.49725
780.60,86.43767
780.80,86.43513
781.00,86.55208
781.20,86.56710
781.40,86.53024
781.60,86.55952
781.80,86.59135
782.00,86.56363
782.20,86.58407
782.40,86.67061
782.60,86.75960
782.80,86.84731
783.00,86.86445
783.20,86.71514
783.40,86.76571
783.60,86.70651
783.80,86.64543
784.00,86.65330
784.20,86.91172
784.40,86.82626
784.60,86.78228
784.80,86.78673
785.00,86.74811
785.20,86.61194
785.40,86.63161
785.60,86.65078
785.80,86.67344
786.00,86.64126
786.20,86.63518
786.40,86.60092
786.60,86.66923
786.80,86.61981
787.00,86.64919
787.20,86.66567
787.40,86.75404
787.60,86.77126
787.80,86.73708
788.00,86.70788
788.20,86.66031
788.40,86.66087
788.60,86.67836
788.80,86.75719
789.00,86.80755
789.20,86.87474
789.40,86.81387
789.60,86.74144
789.80,86.70692
790.00,86.66298
790.20,86.68349
790.40,86.72900
790.60,86.74924
790.80,86.73180
791.00,86.76611
791.20,86.73077
791.40,86.73447
791.60,86.72333
791.80,86.73753
792.00,86.77091
792.20,86.81270
792.40,86.81979
792.60,86.81878
792.80,86.81560
793.00,86.76092
793.20,86.70698
793.40,86.70073
793.60,86.73875
793.80,86.69064
794.00,86.75475
794.20,86.73530
794.40,86.73280
794.60,86.68690
794.80,86.68553
795.00,86.68020
795.20,86.78458
795.40,86.77761
795.60,86.84355
795.80,86.94234
796.00,86.96171
796.20,86.93142
796.40,87.03371
796.60,86.95946
796.80,86.85211
797.00,86.85127
797.20,86.90501
797.40,86.71475
797.60,86.59625
797.80,86.68569
798.00,86.52443
798.20,86.36925
798.40,86.33404
798.60,86.44556
798.80,86.45561
799.00,86.56797
799.20,86.54810
799.40,86.62279
799.60,86.59632
799.80,86.52505
800.00,86.48438
