"Resin MN1534 Slow 2 - RawData"
"Wavelength nm.","T%"
200.00,0.16046
200.20,0.16071
200.40,0.16268
200.60,0.13447
200.80,0.14313
201.00,0.15997
201.20,0.15844
201.40,0.16936
201.60,0.19287
201.80,0.19862
202.00,0.20622
202.20,0.19389
202.40,0.18550
202.60,0.18815
202.80,0.18006
203.00,0.15681
203.20,0.15620
203.40,0.16107
203.60,0.16155
203.80,0.14126
204.00,0.16972
204.20,0.17663
204.40,0.16983
204.60,0.15824
204.80,0.15339
205.00,0.13246
205.20,0.12459
205.40,0.10905
205.60,0.12753
205.80,0.12068
206.00,0.11202
206.20,0.11078
206.40,0.10233
206.60,0.09331
206.80,0.10614
207.00,0.12197
207.20,0.11985
207.40,0.11979
207.60,0.09949
207.80,0.09153
208.00,0.07462
208.20,0.07243
208.40,0.07734
208.60,0.09513
208.80,0.10219
209.00,0.09795
209.20,0.10436
209.40,0.10798
209.60,0.09191
209.80,0.09339
210.00,0.09348
210.20,0.09066
210.40,0.08712
210.60,0.08829
210.80,0.08995
211.00,0.10174
211.20,0.10087
211.40,0.10366
211.60,0.11596
211.80,0.10263
212.00,0.09665
212.20,0.09905
212.40,0.09559
212.60,0.08876
212.80,0.08959
213.00,0.09643
213.20,0.09496
213.40,0.09590
213.60,0.09736
213.80,0.09782
214.00,0.09229
214.20,0.08632
214.40,0.08268
214.60,0.07403
214.80,0.07488
215.00,0.07710
215.20,0.08129
215.40,0.08804
215.60,0.09809
215.80,0.09960
216.00,0.09742
216.20,0.09217
216.40,0.08838
216.60,0.07923
216.80,0.07672
217.00,0.07175
217.20,0.07492
217.40,0.07142
217.60,0.07290
217.80,0.07381
218.00,0.08534
218.20,0.08178
218.40,0.08247
218.60,0.07983
218.80,0.08187
219.00,0.07370
219.20,0.07778
219.40,0.07762
219.60,0.08200
219.80,0.08335
220.00,0.08200
220.20,0.08505
220.40,0.09057
220.60,0.10206
220.80,0.10255
221.00,0.10260
221.20,0.11018
221.40,0.11233
221.60,0.10727
221.80,0.10097
222.00,0.10027
222.20,0.09819
222.40,0.09442
222.60,0.09161
222.80,0.10045
223.00,0.11163
223.20,0.11460
223.40,0.11884
223.60,0.12564
223.80,0.12609
224.00,0.11818
224.20,0.12443
224.40,0.12659
224.60,0.11636
224.80,0.12291
225.00,0.13176
225.20,0.12270
225.40,0.12466
225.60,0.13036
225.80,0.12631
226.00,0.11819
226.20,0.12012
226.40,0.11767
226.60,0.12453
226.80,0.13271
227.00,0.14178
227.20,0.15001
227.40,0.15915
227.60,0.15460
227.80,0.14398
228.00,0.14753
228.20,0.14201
228.40,0.14040
228.60,0.14061
228.80,0.15179
229.00,0.15342
229.20,0.15936
229.40,0.15253
229.60,0.15743
229.80,0.15596
230.00,0.15152
230.20,0.15069
230.40,0.15299
230.60,0.15407
230.80,0.16188
231.00,0.16895
231.20,0.17585
231.40,0.18528
231.60,0.20460
231.80,0.20230
232.00,0.21042
232.20,0.22047
232.40,0.24244
232.60,0.24847
232.80,0.27376
233.00,0.30197
233.20,0.33297
233.40,0.35895
233.60,0.40816
233.80,0.45649
234.00,0.51844
234.20,0.60110
234.40,0.69581
234.60,0.79797
234.80,0.93402
235.00,1.08299
235.20,1.24691
235.40,1.44591
235.60,1.68873
235.80,1.95597
236.00,2.26204
236.20,2.62100
236.40,3.02277
236.60,3.46089
236.80,3.92245
237.00,4.43787
237.20,5.00209
237.40,5.64698
237.60,6.32009
237.80,7.06075
238.00,7.86449
238.20,8.71381
238.40,9.61285
238.60,10.55200
238.80,11.57193
239.00,12.59819
239.20,13.69878
239.40,14.80429
239.60,15.97761
239.80,17.14414
240.00,18.36194
240.20,19.63047
240.40,20.89809
240.60,22.20071
240.80,23.53125
241.00,24.89161
241.20,26.21545
241.40,27.48954
241.60,28.76325
241.80,30.03019
242.00,31.21971
242.20,32.42341
242.40,33.63732
242.60,34.80346
242.80,35.94491
243.00,37.03822
243.20,38.07855
243.40,39.03230
243.60,39.96208
243.80,40.85559
244.00,41.76404
244.20,42.57908
244.40,43.40777
244.60,44.16347
244.80,44.85143
245.00,45.54795
245.20,46.19367
245.40,46.78830
245.60,47.38173
245.80,47.91938
246.00,48.40845
246.20,48.85870
246.40,49.38981
246.60,49.83309
246.80,50.29567
247.00,50.65028
247.20,51.03207
247.40,51.32245
247.60,51.56370
247.80,51.81261
248.00,52.11114
248.20,52.31608
248.40,52.50957
248.60,52.79184
248.80,52.99886
249.00,53.16246
249.20,53.46180
249.40,53.67860
249.60,53.79040
249.80,53.96569
250.00,54.15402
250.20,54.22063
250.40,54.41785
250.60,54.65354
250.80,54.86580
251.00,54.99796
251.20,55.17650
251.40,55.21807
251.60,55.26903
251.80,55.33779
252.00,55.47132
252.20,55.62824
252.40,55.81647
252.60,55.94167
252.80,56.07011
253.00,56.11293
253.20,56.09190
253.40,56.22423
253.60,56.32438
253.80,56.50231
254.00,56.64014
254.20,56.80668
254.40,56.85430
254.60,56.98845
254.80,56.92985
255.00,57.08398
255.20,57.19113
255.40,57.26265
255.60,57.40491
255.80,57.59624
256.00,57.57983
256.20,57.66747
256.40,57.73042
256.60,57.72213
256.80,57.66921
257.00,57.72804
257.20,57.72231
257.40,57.79483
257.60,57.83778
257.80,57.94600
258.00,58.02802
258.20,58.13967
258.40,58.16802
258.60,58.23694
258.80,58.30370
259.00,58.36968
259.20,58.44167
259.40,58.53851
259.60,58.61760
259.80,58.68644
260.00,58.83231
260.20,58.85255
260.40,58.92612
260.60,59.00819
260.80,59.07190
261.00,59.08213
261.20,59.21223
261.40,59.31293
261.60,59.31611
261.80,59.32934
262.00,59.36859
262.20,59.36111
262.40,59.32262
262.60,59.37367
262.80,59.40206
263.00,59.45966
263.20,59.48859
263.40,59.51251
263.60,59.49593
263.80,59.55859
264.00,59.61633
264.20,59.57501
264.40,59.63931
264.60,59.74590
264.80,59.74562
265.00,59.70734
265.20,59.80213
265.40,59.87172
265.60,59.85754
265.80,59.94045
266.00,60.02000
266.20,60.00406
266.40,59.97238
266.60,59.98721
266.80,60.03110
267.00,59.97833
267.20,60.03254
267.40,60.08953
267.60,60.12734
267.80,60.09058
268.00,60.22755
268.20,60.31262
268.40,60.35358
268.60,60.38301
268.80,60.42200
269.00,60.35874
269.20,60.28928
269.40,60.27012
269.60,60.36312
269.80,60.36645
270.00,60.38781
270.20,60.44919
270.40,60.46931
270.60,60.40137
270.80,60.42912
271.00,60.41272
271.20,60.44677
271.40,60.54489
271.60,60.56036
271.80,60.53310
272.00,60.58751
272.20,60.62995
272.40,60.57503
272.60,60.63536
272.80,60.75668
273.00,60.72904
273.20,60.71925
273.40,60.76133
273.60,60.74836
273.80,60.76897
274.00,60.74843
274.20,60.76607
274.40,60.80744
274.60,60.84566
274.80,60.82561
275.00,60.90108
275.20,60.85729
275.40,60.77226
275.60,60.79440
275.80,60.75737
276.00,60.82798
276.20,60.85792
276.40,60.89597
276.60,60.87040
276.80,60.87775
277.00,60.84295
277.20,60.92628
277.40,61.01823
277.60,61.02958
277.80,61.14774
278.00,61.20493
278.20,61.18829
278.40,61.19091
278.60,61.26522
278.80,61.27148
279.00,61.27854
279.20,61.32211
279.40,61.36627
279.60,61.41704
279.80,61.36325
280.00,61.27303
280.20,61.22204
280.40,61.17870
280.60,61.18072
280.80,61.24711
281.00,61.35896
281.20,61.42946
281.40,61.38499
281.60,61.31945
281.80,61.27541
282.00,61.29023
282.20,61.23987
282.40,61.32486
282.60,61.26831
282.80,61.25932
283.00,61.18085
283.20,61.21393
283.40,61.17901
283.60,61.25960
283.80,61.28597
284.00,61.34489
284.20,61.32268
284.40,61.34424
284.60,61.42930
284.80,61.48300
285.00,61.51763
285.20,61.61128
285.40,61.61355
285.60,61.60654
285.80,61.61161
286.00,61.63181
286.20,61.62954
286.40,61.72489
286.60,61.85972
286.80,61.92389
287.00,62.06793
287.20,62.10420
287.40,62.08529
287.60,62.04110
287.80,62.03679
288.00,61.99915
288.20,62.01987
288.40,62.09757
288.60,62.09080
288.80,62.18185
289.00,62.18352
289.20,62.19282
289.40,62.18789
289.60,62.22701
289.80,62.22612
290.00,62.20656
290.20,62.23648
290.40,62.28002
290.60,62.23719
290.80,62.25682
291.00,62.29106
291.20,62.28839
291.40,62.25524
291.60,62.31468
291.80,62.32905
292.00,62.40675
292.20,62.40073
292.40,62.42847
292.60,62.45653
292.80,62.48470
293.00,62.44466
293.20,62.48245
293.40,62.46458
293.60,62.43980
293.80,62.45442
294.00,62.54643
294.20,62.65985
294.40,62.73435
294.60,62.76478
294.80,62.69612
295.00,62.73164
295.20,62.80519
295.40,62.79983
295.60,62.89571
295.80,63.08723
296.00,63.13509
296.20,63.10177
296.40,63.18736
296.60,63.21389
296.80,63.18802
297.00,63.21581
297.20,63.24036
297.40,63.20879
297.60,63.23491
297.80,63.18759
298.00,63.05250
298.20,63.04253
298.40,63.06514
298.60,63.03443
298.80,63.04659
299.00,63.13505
299.20,63.11727
299.40,63.09785
299.60,63.06683
299.80,63.08272
300.00,63.10607
300.20,63.15777
300.40,63.19637
300.60,63.20926
300.80,63.22582
301.00,63.25954
301.20,63.16812
301.40,63.20431
301.60,63.30032
301.80,63.29439
302.00,63.23599
302.20,63.37221
302.40,63.36921
302.60,63.39853
302.80,63.40542
303.00,63.58510
303.20,63.60347
303.40,63.71466
303.60,63.71201
303.80,63.82176
304.00,63.74944
304.20,63.74451
304.40,63.69572
304.60,63.77213
304.80,63.77503
305.00,63.78555
305.20,63.77934
305.40,63.76647
305.60,63.75181
305.80,63.66706
306.00,63.60800
306.20,63.60514
306.40,63.50185
306.60,63.46743
306.80,63.50059
307.00,63.55585
307.20,63.54964
307.40,63.65712
307.60,63.61414
307.80,63.59434
308.00,63.54841
308.20,63.53866
308.40,63.56858
308.60,63.60675
308.80,63.52443
309.00,63.59139
309.20,63.53241
309.40,63.52529
309.60,63.50206
309.80,63.62953
310.00,63.53291
310.20,63.63709
310.40,63.60282
310.60,63.64243
310.80,63.64431
311.00,63.68452
311.20,63.65444
311.40,63.70423
311.60,63.73304
311.80,63.70591
312.00,63.73371
312.20,63.75082
312.40,63.85564
312.60,63.85397
312.80,63.88762
313.00,63.94530
313.20,63.97306
313.40,63.95539
313.60,63.94420
313.80,64.12218
314.00,64.07653
314.20,64.14657
314.40,64.21819
314.60,64.28218
314.80,64.16407
315.00,64.24373
315.20,64.16263
315.40,64.11696
315.60,64.12199
315.80,64.09996
316.00,64.11334
316.20,64.15247
316.40,64.12707
316.60,64.12407
316.80,64.18904
317.00,64.16992
317.20,64.22088
317.40,64.24907
317.60,64.22423
317.80,64.21337
318.00,64.21089
318.20,64.05110
318.40,63.95204
318.60,63.86494
318.80,63.83055
319.00,63.80178
319.20,63.87873
319.40,63.88330
319.60,64.00572
319.80,64.08721
320.00,64.06340
320.20,64.17277
320.40,64.30532
320.60,64.23446
320.80,64.20012
321.00,64.32790
321.20,64.39227
321.40,64.32203
321.60,64.38661
321.80,64.47187
322.00,64.42787
322.20,64.39394
322.40,64.41399
322.60,64.41991
322.80,64.39459
323.00,64.50869
323.20,64.58156
323.40,64.69237
323.60,64.73791
323.80,64.81351
324.00,64.78904
324.20,64.74996
324.40,64.67882
324.60,64.70415
324.80,64.64550
325.00,64.71767
325.20,64.75873
325.40,64.87544
325.60,64.95110
325.80,65.00389
326.00,64.90569
326.20,64.90086
326.40,64.78940
326.60,64.78916
326.80,64.75655
327.00,64.78708
327.20,64.72028
327.40,64.77460
327.60,64.75353
327.80,64.77561
328.00,64.71521
328.20,64.79607
328.40,64.79890
328.60,64.82899
328.80,64.80269
329.00,64.91945
329.20,64.79200
329.40,64.77351
329.60,64.69081
329.80,64.61997
330.00,64.55864
330.20,64.65460
330.40,64.57797
330.60,64.58204
330.80,64.79008
331.00,64.82030
331.20,64.77202
331.40,64.83542
331.60,64.85866
331.80,64.80675
332.00,64.76411
332.20,64.79762
332.40,64.78196
332.60,64.77634
332.80,64.76792
333.00,64.77663
333.20,64.74993
333.40,64.90803
333.60,64.95204
333.80,64.91178
334.00,64.99687
334.20,65.09868
334.40,65.08473
334.60,65.07623
334.80,65.11342
335.00,65.20457
335.20,65.22933
335.40,65.17531
335.60,65.26587
335.80,65.37604
336.00,65.28656
336.20,65.27647
336.40,65.33843
336.60,65.36118
336.80,65.28276
337.00,65.28961
337.20,65.35712
337.40,65.26878
337.60,65.28634
337.80,65.36818
338.00,65.38715
338.20,65.43887
338.40,65.54573
338.60,65.50301
338.80,65.37254
339.00,65.41514
339.20,65.41203
339.40,65.40309
339.60,65.27314
339.80,65.36512
340.00,65.31398
340.20,65.29675
340.40,65.27600
340.60,65.34426
340.80,65.23939
341.00,65.25950
341.20,65.18629
341.40,65.16802
341.60,65.17435
341.80,65.28066
342.00,65.34683
342.20,65.32719
342.40,65.32621
342.60,65.31825
342.80,65.31157
343.00,65.26929
343.20,65.31519
343.40,65.41159
343.60,65.46171
343.80,65.42348
344.00,65.39593
344.20,65.45511
344.40,65.40129
344.60,65.43076
344.80,65.53671
345.00,65.52745
345.20,65.51445
345.40,65.54796
345.60,65.58819
345.80,65.59295
346.00,65.69805
346.20,65.68479
346.40,65.72373
346.60,65.73353
346.80,65.69955
347.00,65.69651
347.20,65.75624
347.40,65.80920
347.60,65.84814
347.80,65.85603
348.00,65.88597
348.20,65.86196
348.40,65.83943
348.60,65.87669
348.80,65.91570
349.00,65.93266
349.20,66.02513
349.40,66.07118
349.60,66.04950
349.80,66.15106
350.00,66.14059
350.20,66.09883
350.40,66.10169
350.60,66.09704
350.80,66.01511
351.00,66.00401
351.20,66.02369
351.40,66.03525
351.60,66.05497
351.80,66.07208
352.00,66.10069
352.20,66.05119
352.40,66.04908
352.60,65.99379
352.80,65.90378
353.00,65.90333
353.20,65.87654
353.40,65.81786
353.60,65.86941
353.80,65.88341
354.00,65.89205
354.20,65.95963
354.40,65.95284
354.60,65.90732
354.80,65.96723
355.00,65.90829
355.20,65.79888
355.40,65.76954
355.60,65.74672
355.80,65.71895
356.00,65.76092
356.20,65.78805
356.40,65.77933
356.60,65.78920
356.80,65.80067
357.00,65.74408
357.20,65.75986
357.40,65.79987
357.60,65.86172
357.80,65.88240
358.00,65.96656
358.20,65.99033
358.40,65.96130
358.60,65.95898
358.80,65.95030
359.00,65.93555
359.20,65.92568
359.40,65.99556
359.60,65.99012
359.80,66.01970
360.00,66.01298
360.20,66.07054
360.40,66.05999
360.60,66.08549
360.80,66.06094
361.00,66.10323
361.20,66.13395
361.40,66.13605
361.60,66.11382
361.80,66.17628
362.00,66.23906
362.20,66.23683
362.40,66.25255
362.60,66.33445
362.80,66.35185
363.00,66.28445
363.20,66.29871
363.40,66.30054
363.60,66.28056
363.80,66.29829
364.00,66.31047
364.20,66.29710
364.40,66.31141
364.60,66.32960
364.80,66.30231
365.00,66.28349
365.20,66.26304
365.40,66.26793
365.60,66.21605
365.80,66.20128
366.00,66.20069
366.20,66.26043
366.40,66.22622
366.60,66.22026
366.80,66.21314
367.00,66.22829
367.20,66.14476
367.40,66.19898
367.60,66.16846
367.80,66.10802
368.00,66.08055
368.20,66.12394
368.40,66.10368
368.60,66.10402
368.80,66.16259
369.00,66.13745
369.20,66.09157
369.40,66.05538
369.60,66.06901
369.80,66.05113
370.00,66.08756
370.20,66.06035
370.40,66.12061
370.60,66.07673
370.80,66.09294
371.00,66.09423
371.20,66.16477
371.40,66.13968
371.60,66.20486
371.80,66.17233
372.00,66.17214
372.20,66.10246
372.40,66.08198
372.60,66.06314
372.80,66.04785
373.00,66.03623
373.20,66.13171
373.40,66.11747
373.60,66.17783
373.80,66.23249
374.00,66.24548
374.20,66.24889
374.40,66.30690
374.60,66.29563
374.80,66.29802
375.00,66.39876
375.20,66.47788
375.40,66.52992
375.60,66.56929
375.80,66.60322
376.00,66.55567
376.20,66.46557
376.40,66.43040
376.60,66.42892
376.80,66.44676
377.00,66.45303
377.20,66.51567
377.40,66.56137
377.60,66.57396
377.80,66.59511
378.00,66.64595
378.20,66.63857
378.40,66.64456
378.60,66.65540
378.80,66.67857
379.00,66.66753
379.20,66.69039
379.40,66.68861
379.60,66.72722
379.80,66.71876
380.00,66.71928
380.20,66.69949
380.40,66.69655
380.60,66.66350
380.80,66.66858
381.00,66.69379
381.20,66.68231
381.40,66.68919
381.60,66.70676
381.80,66.68394
382.00,66.63498
382.20,66.63157
382.40,66.55653
382.60,66.49224
382.80,66.50473
383.00,66.50547
383.20,66.49389
383.40,66.52766
383.60,66.52282
383.80,66.49144
384.00,66.49589
384.20,66.46834
384.40,66.43834
384.60,66.43423
384.80,66.43167
385.00,66.40942
385.20,66.44029
385.40,66.46900
385.60,66.47146
385.80,66.44617
386.00,66.46341
386.20,66.45747
386.40,66.43876
386.60,66.44490
386.80,66.45805
387.00,66.41902
387.20,66.43652
387.40,66.42217
387.60,66.40138
387.80,66.37554
388.00,66.45337
388.20,66.46193
388.40,66.49794
388.60,66.48353
388.80,66.51701
389.00,66.45198
389.20,66.41291
389.40,66.42610
389.60,66.48549
389.80,66.53019
390.00,66.57752
390.20,66.62486
390.40,66.62754
390.60,66.63123
390.80,66.59799
391.00,66.59138
391.20,66.59219
391.40,66.62337
391.60,66.62172
391.80,66.70794
392.00,66.72178
392.20,66.73405
392.40,66.73898
392.60,66.80350
392.80,66.77755
393.00,66.82162
393.20,66.84773
393.40,66.85270
393.60,66.85497
393.80,66.88819
394.00,66.87895
394.20,66.94449
394.40,66.94191
394.60,66.92709
394.80,66.90568
395.00,66.91821
395.20,66.89633
395.40,66.93071
395.60,66.95505
395.80,66.99096
396.00,67.03591
396.20,67.06325
396.40,67.12091
396.60,67.14438
396.80,67.13428
397.00,67.07207
397.20,67.04479
397.40,66.99883
397.60,67.01085
397.80,67.02417
398.00,67.05180
398.20,67.08158
398.40,67.10597
398.60,67.03700
398.80,67.02682
399.00,67.04672
399.20,67.00302
399.40,66.99706
399.60,66.99715
399.80,66.99634
400.00,66.95250
400.20,66.93821
400.40,66.92057
400.60,66.97412
400.80,66.92171
401.00,66.90576
401.20,66.87681
401.40,66.86928
401.60,66.83751
401.80,66.86699
402.00,66.92083
402.20,66.99269
402.40,66.97294
402.60,66.94928
402.80,66.94195
403.00,66.90056
403.20,66.84480
403.40,66.80199
403.60,66.83577
403.80,66.81842
404.00,66.82859
404.20,66.84017
404.40,66.87551
404.60,66.89513
404.80,66.93830
405.00,66.93083
405.20,66.94251
405.40,66.93848
405.60,66.86317
405.80,66.81147
406.00,66.79909
406.20,66.79298
406.40,66.83031
406.60,66.91797
406.80,66.96236
407.00,67.00065
407.20,67.02145
407.40,67.01969
407.60,66.98499
407.80,66.99730
408.00,67.01154
408.20,67.00631
408.40,66.99120
408.60,67.03921
408.80,67.07298
409.00,67.08308
409.20,67.13848
409.40,67.19484
409.60,67.17116
409.80,67.17768
410.00,67.23022
410.20,67.23061
410.40,67.22995
410.60,67.29259
410.80,67.31499
411.00,67.32994
411.20,67.35685
411.40,67.40158
411.60,67.42672
411.80,67.47758
412.00,67.52189
412.20,67.56935
412.40,67.59328
412.60,67.63155
412.80,67.61393
413.00,67.59120
413.20,67.57258
413.40,67.54629
413.60,67.51430
413.80,67.53877
414.00,67.56709
414.20,67.55752
414.40,67.60801
414.60,67.60074
414.80,67.60187
415.00,67.58423
415.20,67.62861
415.40,67.63883
415.60,67.66436
415.80,67.70264
416.00,67.73960
416.20,67.75196
416.40,67.72732
416.60,67.76232
416.80,67.76448
417.00,67.73531
417.20,67.71407
417.40,67.75967
417.60,67.73427
417.80,67.71973
418.00,67.73152
418.20,67.75982
418.40,67.74023
418.60,67.76090
418.80,67.78288
419.00,67.78902
419.20,67.79442
419.40,67.79686
419.60,67.80493
419.80,67.79549
420.00,67.77012
420.20,67.74940
420.40,67.74672
420.60,67.74551
420.80,67.72497
421.00,67.74352
421.20,67.74703
421.40,67.72859
421.60,67.72555
421.80,67.73303
422.00,67.74395
422.20,67.74614
422.40,67.77068
422.60,67.76382
422.80,67.77163
423.00,67.77363
423.20,67.76088
423.40,67.79384
423.60,67.80440
423.80,67.80779
424.00,67.81442
424.20,67.82075
424.40,67.83056
424.60,67.84300
424.80,67.87022
425.00,67.87595
425.20,67.90716
425.40,67.89888
425.60,67.89583
425.80,67.89461
426.00,67.91319
426.20,67.95927
426.40,67.97233
426.60,68.00988
426.80,68.04413
427.00,68.08619
427.20,68.09020
427.40,68.13092
427.60,68.13353
427.80,68.15218
428.00,68.15321
428.20,68.17637
428.40,68.16763
428.60,68.23779
428.80,68.24526
429.00,68.24877
429.20,68.26349
429.40,68.28407
429.60,68.28445
429.80,68.31404
430.00,68.33776
430.20,68.34754
430.40,68.36624
430.60,68.37727
430.80,68.41013
431.00,68.44203
431.20,68.47575
431.40,68.54008
431.60,68.58046
431.80,68.59743
432.00,68.63625
432.20,68.64210
432.40,68.63174
432.60,68.60002
432.80,68.61179
433.00,68.63190
433.20,68.64144
433.40,68.65080
433.60,68.69282
433.80,68.70576
434.00,68.69819
434.20,68.74104
434.40,68.77700
434.60,68.79665
434.80,68.78490
435.00,68.80782
435.20,68.81260
435.40,68.81645
435.60,68.82374
435.80,68.84007
436.00,68.86389
436.20,68.86400
436.40,68.88492
436.60,68.88884
436.80,68.90708
437.00,68.87816
437.20,68.85133
437.40,68.82777
437.60,68.84672
437.80,68.84477
438.00,68.86378
438.20,68.87779
438.40,68.89894
438.60,68.86141
438.80,68.82644
439.00,68.82799
439.20,68.84553
439.40,68.82058
439.60,68.82935
439.80,68.83724
440.00,68.83940
440.20,68.79405
440.40,68.78307
440.60,68.78067
440.80,68.78850
441.00,68.73424
441.20,68.73093
441.40,68.70385
441.60,68.65785
441.80,68.64102
442.00,68.66804
442.20,68.69614
442.40,68.69053
442.60,68.68289
442.80,68.68156
443.00,68.63821
443.20,68.57079
443.40,68.56638
443.60,68.59636
443.80,68.58208
444.00,68.58261
444.20,68.61049
444.40,68.62114
444.60,68.56298
444.80,68.55104
445.00,68.55520
445.20,68.51864
445.40,68.49434
445.60,68.54261
445.80,68.49601
446.00,68.48128
446.20,68.46638
446.40,68.45750
446.60,68.44409
446.80,68.49840
447.00,68.50786
447.20,68.54866
447.40,68.57471
447.60,68.57273
447.80,68.58136
448.00,68.58464
448.20,68.58749
448.40,68.59289
448.60,68.62441
448.80,68.61469
449.00,68.63101
449.20,68.65341
449.40,68.65642
449.60,68.61573
449.80,68.61223
450.00,68.63091
450.20,68.63707
450.40,68.66115
450.60,68.69788
450.80,68.73271
451.00,68.72123
451.20,68.75309
451.40,68.75252
451.60,68.78689
451.80,68.79789
452.00,68.82005
452.20,68.80769
452.40,68.84906
452.60,68.85607
452.80,68.90479
453.00,68.94456
453.20,68.98777
453.40,68.99146
453.60,69.01259
453.80,69.03054
454.00,69.04262
454.20,69.02090
454.40,69.04855
454.60,69.04957
454.80,69.04338
455.00,69.06492
455.20,69.12471
455.40,69.12700
455.60,69.13894
455.80,69.18153
456.00,69.18625
456.20,69.18603
456.40,69.19959
456.60,69.24548
456.80,69.24230
457.00,69.25259
457.20,69.26134
457.40,69.25867
457.60,69.24819
457.80,69.22294
458.00,69.23031
458.20,69.24553
458.40,69.27807
458.60,69.29643
458.80,69.36465
459.00,69.37055
459.20,69.35486
459.40,69.34929
459.60,69.31935
459.80,69.30521
460.00,69.32074
460.20,69.34729
460.40,69.35475
460.60,69.38695
460.80,69.37610
461.00,69.34794
461.20,69.33589
461.40,69.31500
461.60,69.32558
461.80,69.30098
462.00,69.30910
462.20,69.27658
462.40,69.27307
462.60,69.22909
462.80,69.22596
463.00,69.20460
463.20,69.19661
463.40,69.21229
463.60,69.18856
463.80,69.20243
464.00,69.19303
464.20,69.18346
464.40,69.18409
464.60,69.19883
464.80,69.14940
465.00,69.14992
465.20,69.14381
465.40,69.08973
465.60,69.07594
465.80,69.06303
466.00,69.02071
466.20,69.02615
466.40,69.00943
466.60,69.02269
466.80,69.03151
467.00,69.02809
467.20,68.98924
467.40,68.98744
467.60,68.98869
467.80,68.95741
468.00,68.96788
468.20,68.98280
468.40,68.94572
468.60,68.90771
468.80,68.90981
469.00,68.90507
469.20,68.87852
469.40,68.89803
469.60,68.86848
469.80,68.86406
470.00,68.83348
470.20,68.84831
470.40,68.84183
470.60,68.84294
470.80,68.83859
471.00,68.85735
471.20,68.85349
471.40,68.85848
471.60,68.85098
471.80,68.83879
472.00,68.84199
472.20,68.82030
472.40,68.83008
472.60,68.86461
472.80,68.91120
473.00,68.91224
473.20,68.91900
473.40,68.91176
473.60,68.90501
473.80,68.87279
474.00,68.87779
474.20,68.88888
474.40,68.90891
474.60,68.91335
474.80,68.93257
475.00,68.92309
475.20,68.94770
475.40,68.94913
475.60,68.97070
475.80,69.00411
476.00,69.04405
476.20,69.05972
476.40,69.09679
476.60,69.10930
476.80,69.11134
477.00,69.12597
477.20,69.14840
477.40,69.14757
477.60,69.17534
477.80,69.18622
478.00,69.21806
478.20,69.24711
478.40,69.26199
478.60,69.27211
478.80,69.31398
479.00,69.32561
479.20,69.31900
479.40,69.33583
479.60,69.34736
479.80,69.34904
480.00,69.36387
480.20,69.40311
480.40,69.43027
480.60,69.44590
480.80,69.44744
481.00,69.46884
481.20,69.48757
481.40,69.51601
481.60,69.53236
481.80,69.54786
482.00,69.56741
482.20,69.55700
482.40,69.54753
482.60,69.55125
482.80,69.58150
483.00,69.57823
483.20,69.59686
483.40,69.59349
483.60,69.64433
483.80,69.63409
484.00,69.65691
484.20,69.66981
484.40,69.70019
484.60,69.66746
484.80,69.69104
485.00,69.68089
485.20,69.67534
485.40,69.66966
485.60,69.68684
485.80,69.68701
486.00,69.69151
486.20,69.70046
486.40,69.72187
486.60,69.71470
486.80,69.70860
487.00,69.67272
487.20,69.65106
487.40,69.62492
487.60,69.61226
487.80,69.60441
488.00,69.63261
488.20,69.64101
488.40,69.64208
488.60,69.63487
488.80,69.62498
489.00,69.59991
489.20,69.60580
489.40,69.57477
489.60,69.58488
489.80,69.57439
490.00,69.58672
490.20,69.58675
490.40,69.60925
490.60,69.61235
490.80,69.61668
491.00,69.59844
491.20,69.56479
491.40,69.54243
491.60,69.49741
491.80,69.49049
492.00,69.48610
492.20,69.48375
492.40,69.47027
492.60,69.47122
492.80,69.43782
493.00,69.40395
493.20,69.38118
493.40,69.39139
493.60,69.37270
493.80,69.36139
494.00,69.34791
494.20,69.32001
494.40,69.27093
494.60,69.25575
494.80,69.27696
495.00,69.26940
495.20,69.27352
495.40,69.26931
495.60,69.23826
495.80,69.19509
496.00,69.19130
496.20,69.18538
496.40,69.17232
496.60,69.17915
496.80,69.16935
497.00,69.13792
497.20,69.11592
497.40,69.10374
497.60,69.09449
497.80,69.10020
498.00,69.12407
498.20,69.10327
498.40,69.11074
498.60,69.10684
498.80,69.09847
499.00,69.07652
499.20,69.10218
499.40,69.10713
499.60,69.09029
499.80,69.07390
500.00,69.05695
500.20,69.04559
500.40,69.02097
500.60,69.03760
500.80,69.05209
501.00,69.06962
501.20,69.08046
501.40,69.09934
501.60,69.11453
501.80,69.10841
502.00,69.12401
502.20,69.11453
502.40,69.12649
502.60,69.13143
502.80,69.14092
503.00,69.14886
503.20,69.14805
503.40,69.13676
503.60,69.12821
503.80,69.13005
504.00,69.12488
504.20,69.13820
504.40,69.15838
504.60,69.17671
504.80,69.19132
505.00,69.24531
505.20,69.28377
505.40,69.28965
505.60,69.30829
505.80,69.32890
506.00,69.31528
506.20,69.30220
506.40,69.32597
506.60,69.32951
506.80,69.34237
507.00,69.34404
507.20,69.36820
507.40,69.38149
507.60,69.40713
507.80,69.42264
508.00,69.43855
508.20,69.47760
508.40,69.46954
508.60,69.49116
508.80,69.51070
509.00,69.57757
509.20,69.58997
509.40,69.63143
509.60,69.65445
509.80,69.67334
510.00,69.64628
510.20,69.66057
510.40,69.69016
510.60,69.70958
510.80,69.71507
511.00,69.73988
511.20,69.74104
511.40,69.74815
511.60,69.74885
511.80,69.74809
512.00,69.76420
512.20,69.77038
512.40,69.77782
512.60,69.77932
512.80,69.81450
513.00,69.80302
513.20,69.83967
513.40,69.82637
513.60,69.85927
513.80,69.85899
514.00,69.88598
514.20,69.88786
514.40,69.93654
514.60,69.92899
514.80,69.92220
515.00,69.92424
515.20,69.92082
515.40,69.89345
515.60,69.91222
515.80,69.93766
516.00,69.93302
516.20,69.94337
516.40,69.93282
516.60,69.93846
516.80,69.94109
517.00,69.92754
517.20,69.90041
517.40,69.93312
517.60,69.91637
517.80,69.92233
518.00,69.92813
518.20,69.95116
518.40,69.95484
518.60,69.95286
518.80,69.94269
519.00,69.94876
519.20,69.91635
519.40,69.90612
519.60,69.87264
519.80,69.86392
520.00,69.85038
520.20,69.85475
520.40,69.81331
520.60,69.83708
520.80,69.81264
521.00,69.79623
521.20,69.76575
521.40,69.76470
521.60,69.73597
521.80,69.71377
522.00,69.70083
522.20,69.70248
522.40,69.68826
522.60,69.66802
522.80,69.67880
523.00,69.66747
523.20,69.65781
523.40,69.66295
523.60,69.65273
523.80,69.64146
524.00,69.63519
524.20,69.62278
524.40,69.57787
524.60,69.55330
524.80,69.53871
525.00,69.54806
525.20,69.53830
525.40,69.55442
525.60,69.54959
525.80,69.53719
526.00,69.45970
526.20,69.43789
526.40,69.39758
526.60,69.39291
526.80,69.36002
527.00,69.35006
527.20,69.34021
527.40,69.32850
527.60,69.30764
527.80,69.29720
528.00,69.31907
528.20,69.31908
528.40,69.31410
528.60,69.29283
528.80,69.26732
529.00,69.24340
529.20,69.21730
529.40,69.23252
529.60,69.22621
529.80,69.22818
530.00,69.23380
530.20,69.23059
530.40,69.19932
530.60,69.20227
530.80,69.19945
531.00,69.21615
531.20,69.22215
531.40,69.21848
531.60,69.20246
531.80,69.20221
532.00,69.20174
532.20,69.19557
532.40,69.20598
532.60,69.21961
532.80,69.20272
533.00,69.17205
533.20,69.16251
533.40,69.16785
533.60,69.17341
533.80,69.18043
534.00,69.17660
534.20,69.22343
534.40,69.22640
534.60,69.21669
534.80,69.25449
535.00,69.28022
535.20,69.24791
535.40,69.24334
535.60,69.27234
535.80,69.26224
536.00,69.28005
536.20,69.31500
536.40,69.32939
536.60,69.32840
536.80,69.34788
537.00,69.33611
537.20,69.32217
537.40,69.33283
537.60,69.36091
537.80,69.34965
538.00,69.40188
538.20,69.41624
538.40,69.45156
538.60,69.46501
538.80,69.48802
539.00,69.46792
539.20,69.48869
539.40,69.50183
539.60,69.49866
539.80,69.52648
540.00,69.55589
540.20,69.59301
540.40,69.58940
540.60,69.61449
540.80,69.62512
541.00,69.63133
541.20,69.63820
541.40,69.64771
541.60,69.65165
541.80,69.68085
542.00,69.70085
542.20,69.71177
542.40,69.74702
542.60,69.78872
542.80,69.80196
543.00,69.81468
543.20,69.84240
543.40,69.86790
543.60,69.86607
543.80,69.87492
544.00,69.91515
544.20,69.89498
544.40,69.86941
544.60,69.88546
544.80,69.87783
545.00,69.87657
545.20,69.89886
545.40,69.91533
545.60,69.91947
545.80,69.93934
546.00,69.96968
546.20,69.96373
546.40,69.99474
546.60,70.00430
546.80,70.01991
547.00,69.99257
547.20,70.00022
547.40,69.99440
547.60,70.05117
547.80,70.06505
548.00,70.09206
548.20,70.11800
548.40,70.13965
548.60,70.09331
548.80,70.09695
549.00,70.11340
549.20,70.12636
549.40,70.13346
549.60,70.18021
549.80,70.20670
550.00,70.21057
550.20,70.21623
550.40,70.22514
550.60,70.20730
550.80,70.21438
551.00,70.20245
551.20,70.19945
551.40,70.18179
551.60,70.17134
551.80,70.14989
552.00,70.16256
552.20,70.17528
552.40,70.19033
552.60,70.16675
552.80,70.14590
553.00,70.11272
553.20,70.10735
553.40,70.09636
553.60,70.10183
553.80,70.13226
554.00,70.14073
554.20,70.12724
554.40,70.11430
554.60,70.11372
554.80,70.10881
555.00,70.11528
555.20,70.11345
555.40,70.11105
555.60,70.11474
555.80,70.08471
556.00,70.05525
556.20,70.03313
556.40,70.03360
556.60,70.03427
556.80,70.03813
557.00,70.03754
557.20,70.04330
557.40,70.00865
557.60,69.98617
557.80,69.95160
558.00,69.93520
558.20,69.89691
558.40,69.90278
558.60,69.87459
558.80,69.86872
559.00,69.87653
559.20,69.88621
559.40,69.85686
559.60,69.85485
559.80,69.84744
560.00,69.82293
560.20,69.79248
560.40,69.80626
560.60,69.77920
560.80,69.74581
561.00,69.72618
561.20,69.71504
561.40,69.69237
561.60,69.68105
561.80,69.68473
562.00,69.67833
562.20,69.65980
562.40,69.63430
562.60,69.62812
562.80,69.61185
563.00,69.59831
563.20,69.60760
563.40,69.59561
563.60,69.59912
563.80,69.58784
564.00,69.55925
564.20,69.53228
564.40,69.50634
564.60,69.48589
564.80,69.46561
565.00,69.46185
565.20,69.46062
565.40,69.45789
565.60,69.44081
565.80,69.45095
566.00,69.44944
566.20,69.42167
566.40,69.43032
566.60,69.43422
566.80,69.41950
567.00,69.40025
567.20,69.41378
567.40,69.38282
567.60,69.36862
567.80,69.36921
568.00,69.37129
568.20,69.36904
568.40,69.40086
568.60,69.40597
568.80,69.40467
569.00,69.39992
569.20,69.37825
569.40,69.36319
569.60,69.37354
569.80,69.34967
570.00,69.34332
570.20,69.34128
570.40,69.35368
570.60,69.33286
570.80,69.34080
571.00,69.34801
571.20,69.37692
571.40,69.37136
571.60,69.37981
571.80,69.40768
572.00,69.41194
572.20,69.42515
572.40,69.43905
572.60,69.44003
572.80,69.41912
573.00,69.43272
573.20,69.42179
573.40,69.41654
573.60,69.43740
573.80,69.46096
574.00,69.44978
574.20,69.44860
574.40,69.48442
574.60,69.49812
574.80,69.50905
575.00,69.55329
575.20,69.59670
575.40,69.59390
575.60,69.60784
575.80,69.61842
576.00,69.60992
576.20,69.60973
576.40,69.62478
576.60,69.62613
576.80,69.63568
577.00,69.66786
577.20,69.68199
577.40,69.68623
577.60,69.69011
577.80,69.73218
578.00,69.75239
578.20,69.75572
578.40,69.77087
578.60,69.80914
578.80,69.80810
579.00,69.81152
579.20,69.82408
579.40,69.81593
579.60,69.81893
579.80,69.82781
580.00,69.84029
580.20,69.85164
580.40,69.87990
580.60,69.91463
580.80,69.92140
581.00,69.94560
581.20,69.95921
581.40,69.99651
581.60,70.00695
581.80,70.03950
582.00,70.06348
582.20,70.11366
582.40,70.12985
582.60,70.14465
582.80,70.14010
583.00,70.14395
583.20,70.11918
583.40,70.11963
583.60,70.12161
583.80,70.16860
584.00,70.18446
584.20,70.21599
584.40,70.24117
584.60,70.27005
584.80,70.26888
585.00,70.27165
585.20,70.31135
585.40,70.34202
585.60,70.35227
585.80,70.37308
586.00,70.38800
586.20,70.37532
586.40,70.36825
586.60,70.36937
586.80,70.37275
587.00,70.41956
587.20,70.42503
587.40,70.44252
587.60,70.44855
587.80,70.46559
588.00,70.43046
588.20,70.45616
588.40,70.45217
588.60,70.48585
588.80,70.47822
589.00,70.48817
589.20,70.50331
589.40,70.52158
589.60,70.51765
589.80,70.53652
590.00,70.55017
590.20,70.53802
590.40,70.53307
590.60,70.52228
590.80,70.51852
591.00,70.54076
591.20,70.53229
591.40,70.54109
591.60,70.57136
591.80,70.60111
592.00,70.57737
592.20,70.59144
592.40,70.58479
592.60,70.55771
592.80,70.54884
593.00,70.57154
593.20,70.57244
593.40,70.56053
593.60,70.55961
593.80,70.56288
594.00,70.54146
594.20,70.55084
594.40,70.57492
594.60,70.57586
594.80,70.56255
595.00,70.57194
595.20,70.55283
595.40,70.53142
595.60,70.53326
595.80,70.52619
596.00,70.52381
596.20,70.51502
596.40,70.51674
596.60,70.50233
596.80,70.49546
597.00,70.47102
597.20,70.44922
597.40,70.42970
597.60,70.43343
597.80,70.39552
598.00,70.39787
598.20,70.39101
598.40,70.38006
598.60,70.39528
598.80,70.40982
599.00,70.37610
599.20,70.37076
599.40,70.35774
599.60,70.33394
599.80,70.32675
600.00,70.31718
600.20,70.33113
600.40,70.33838
600.60,70.31910
600.80,70.29988
601.00,70.29938
601.20,70.29237
601.40,70.28280
601.60,70.25383
601.80,70.23683
602.00,70.25136
602.20,70.22030
602.40,70.20069
602.60,70.19334
602.80,70.19255
603.00,70.16150
603.20,70.14309
603.40,70.13081
603.60,70.12792
603.80,70.11223
604.00,70.09531
604.20,70.10098
604.40,70.07658
604.60,70.04890
604.80,70.02491
605.00,70.02600
605.20,70.00232
605.40,70.01533
605.60,70.00419
605.80,70.01262
606.00,69.99253
606.20,69.97997
606.40,69.95257
606.60,69.96349
606.80,69.93129
607.00,69.89143
607.20,69.89360
607.40,69.90650
607.60,69.87630
607.80,69.88738
608.00,69.90650
608.20,69.88583
608.40,69.85978
608.60,69.86422
608.80,69.86174
609.00,69.88071
609.20,69.88097
609.40,69.89665
609.60,69.89092
609.80,69.89239
610.00,69.86238
610.20,69.85014
610.40,69.81813
610.60,69.79863
610.80,69.79102
611.00,69.77301
611.20,69.76853
611.40,69.77057
611.60,69.78911
611.80,69.74915
612.00,69.75869
612.20,69.75795
612.40,69.75365
612.60,69.72394
612.80,69.75129
613.00,69.79555
613.20,69.79474
613.40,69.80887
613.60,69.82604
613.80,69.82843
614.00,69.79730
614.20,69.82110
614.40,69.79610
614.60,69.81302
614.80,69.80939
615.00,69.80465
615.20,69.82582
615.40,69.86024
615.60,69.84096
615.80,69.84981
616.00,69.85054
616.20,69.83568
616.40,69.81806
616.60,69.85506
616.80,69.83806
617.00,69.84599
617.20,69.83761
617.40,69.85781
617.60,69.85167
617.80,69.87453
618.00,69.87553
618.20,69.88686
618.40,69.88932
618.60,69.89299
618.80,69.91852
619.00,69.92293
619.20,69.92037
619.40,69.92557
619.60,69.92080
619.80,69.92348
620.00,69.93929
620.20,69.96687
620.40,70.00723
620.60,70.00893
620.80,70.01977
621.00,70.04345
621.20,70.06514
621.40,70.05458
621.60,70.09178
621.80,70.07577
622.00,70.07716
622.20,70.07647
622.40,70.06792
622.60,70.06831
622.80,70.13013
623.00,70.14534
623.20,70.15854
623.40,70.18522
623.60,70.20822
623.80,70.18864
624.00,70.21104
624.20,70.22874
624.40,70.23566
624.60,70.25374
624.80,70.28289
625.00,70.30157
625.20,70.30789
625.40,70.34525
625.60,70.36675
625.80,70.39616
626.00,70.41659
626.20,70.42759
626.40,70.42730
626.60,70.42500
626.80,70.44314
627.00,70.46367
627.20,70.47111
627.40,70.48529
627.60,70.50842
627.80,70.49462
628.00,70.49640
628.20,70.51198
628.40,70.55877
628.60,70.57154
628.80,70.57276
629.00,70.58266
629.20,70.63158
629.40,70.63621
629.60,70.64876
629.80,70.71435
630.00,70.75835
630.20,70.75095
630.40,70.73565
630.60,70.75250
630.80,70.72458
631.00,70.69650
631.20,70.70878
631.40,70.74604
631.60,70.75802
631.80,70.78821
632.00,70.81264
632.20,70.83879
632.40,70.83992
632.60,70.84858
632.80,70.83527
633.00,70.84987
633.20,70.86850
633.40,70.87120
633.60,70.87354
633.80,70.90560
634.00,70.91858
634.20,70.91563
634.40,70.92693
634.60,70.94841
634.80,70.95204
635.00,70.97062
635.20,70.95400
635.40,70.98221
635.60,70.99157
635.80,70.99028
636.00,71.00096
636.20,71.04735
636.40,71.04779
636.60,71.03833
636.80,71.04288
637.00,71.03517
637.20,71.03497
637.40,71.05812
637.60,71.08882
637.80,71.09081
638.00,71.09691
638.20,71.10362
638.40,71.08975
638.60,71.07084
638.80,71.07632
639.00,71.06517
639.20,71.04936
639.40,71.06239
639.60,71.07822
639.80,71.08734
640.00,71.08698
640.20,71.09578
640.40,71.04841
640.60,71.02606
640.80,71.03282
641.00,71.03980
641.20,71.04181
641.40,71.06554
641.60,71.09504
641.80,71.10132
642.00,71.11228
642.20,71.11406
642.40,71.11260
642.60,71.12244
642.80,71.09993
643.00,71.09684
643.20,71.10868
643.40,71.12028
643.60,71.09636
643.80,71.08601
644.00,71.06377
644.20,71.04651
644.40,71.04208
644.60,71.04441
644.80,71.06866
645.00,71.07596
645.20,71.06175
645.40,71.05113
645.60,71.02396
645.80,71.00049
646.00,70.98309
646.20,70.96702
646.40,70.99067
646.60,70.99972
646.80,71.02333
647.00,71.04470
647.20,71.01643
647.40,71.00374
647.60,70.96353
647.80,70.94816
648.00,70.91148
648.20,70.92130
648.40,70.91869
648.60,70.94388
648.80,70.91990
649.00,70.93378
649.20,70.94727
649.40,70.92980
649.60,70.93208
649.80,70.92457
650.00,70.89250
650.20,70.84267
650.40,70.82577
650.60,70.81287
650.80,70.82465
651.00,70.82601
651.20,70.86764
651.40,70.84934
651.60,70.84963
651.80,70.82106
652.00,70.83421
652.20,70.79470
652.40,70.81482
652.60,70.79179
652.80,70.79445
653.00,70.79842
653.20,70.81193
653.40,70.75983
653.60,70.77273
653.80,70.76254
654.00,70.71419
654.20,70.70305
654.40,70.72908
654.60,70.70842
654.80,70.71145
655.00,70.71471
655.20,70.68745
655.40,70.67314
655.60,70.65675
655.80,70.62245
656.00,70.58381
656.20,70.59547
656.40,70.59972
656.60,70.60881
656.80,70.63429
657.00,70.67945
657.20,70.67942
657.40,70.64909
657.60,70.62894
657.80,70.59441
658.00,70.57327
658.20,70.58931
658.40,70.61203
658.60,70.61961
658.80,70.65495
659.00,70.65880
659.20,70.62681
659.40,70.59299
659.60,70.57300
659.80,70.54193
660.00,70.52187
660.20,70.51908
660.40,70.51314
660.60,70.53377
660.80,70.53094
661.00,70.50751
661.20,70.52208
661.40,70.54317
661.60,70.53453
661.80,70.57956
662.00,70.62547
662.20,70.61703
662.40,70.64000
662.60,70.65730
662.80,70.63029
663.00,70.61851
663.20,70.59338
663.40,70.56214
663.60,70.56339
663.80,70.55127
664.00,70.57217
664.20,70.61071
664.40,70.61409
664.60,70.60902
664.80,70.61502
665.00,70.63432
665.20,70.63323
665.40,70.63564
665.60,70.67106
665.80,70.70678
666.00,70.67531
666.20,70.68660
666.40,70.70994
666.60,70.68223
666.80,70.67536
667.00,70.70419
667.20,70.69451
667.40,70.73222
667.60,70.76466
667.80,70.72049
668.00,70.70262
668.20,70.71962
668.40,70.71075
668.60,70.72017
668.80,70.79785
669.00,70.86357
669.20,70.87069
669.40,70.86809
669.60,70.88849
669.80,70.89224
670.00,70.86091
670.20,70.87266
670.40,70.89778
670.60,70.86275
670.80,70.88348
671.00,70.93145
671.20,70.92647
671.40,70.93520
671.60,70.97182
671.80,70.96877
672.00,70.95864
672.20,71.01084
672.40,71.03891
672.60,71.07401
672.80,71.04838
673.00,71.05944
673.20,71.07983
673.40,71.07974
673.60,71.08539
673.80,71.13828
674.00,71.16963
674.20,71.22708
674.40,71.25598
674.60,71.25309
674.80,71.29406
675.00,71.28820
675.20,71.25087
675.40,71.26149
675.60,71.28969
675.80,71.31481
676.00,71.35277
676.20,71.38405
676.40,71.40165
676.60,71.40533
676.80,71.38743
677.00,71.40961
677.20,71.41607
677.40,71.44244
677.60,71.47298
677.80,71.49684
678.00,71.51011
678.20,71.51232
678.40,71.53396
678.60,71.55988
678.80,71.60954
679.00,71.61489
679.20,71.69929
679.40,71.74675
679.60,71.76473
679.80,71.78599
680.00,71.84764
680.20,71.80555
680.40,71.79394
680.60,71.82658
680.80,71.83871
681.00,71.81481
681.20,71.84027
681.40,71.85879
681.60,71.87560
681.80,71.88506
682.00,71.95122
682.20,72.02103
682.40,72.04407
682.60,72.07762
682.80,72.08161
683.00,72.05448
683.20,72.03780
683.40,72.05931
683.60,72.10811
683.80,72.16100
684.00,72.21611
684.20,72.24077
684.40,72.26223
684.60,72.26860
684.80,72.28429
685.00,72.29813
685.20,72.27840
685.40,72.29228
685.60,72.28590
685.80,72.28962
686.00,72.28557
686.20,72.36941
686.40,72.44938
686.60,72.47061
686.80,72.50704
687.00,72.53709
687.20,72.55059
687.40,72.52300
687.60,72.51205
687.80,72.51447
688.00,72.54628
688.20,72.58654
688.40,72.57203
688.60,72.60215
688.80,72.61393
689.00,72.63153
689.20,72.61265
689.40,72.68984
689.60,72.74354
689.80,72.80326
690.00,72.82254
690.20,72.85981
690.40,72.82976
690.60,72.83247
690.80,72.85721
691.00,72.86488
691.20,72.84984
691.40,72.87240
691.60,72.89685
691.80,72.88665
692.00,72.92458
692.20,72.94518
692.40,72.97696
692.60,72.96454
692.80,72.95452
693.00,72.95717
693.20,72.95309
693.40,72.95764
693.60,72.99839
693.80,73.07680
694.00,73.09113
694.20,73.15916
694.40,73.14723
694.60,73.15099
694.80,73.09387
695.00,73.10402
695.20,73.08868
695.40,73.13106
695.60,73.12895
695.80,73.12205
696.00,73.13475
696.20,73.17716
696.40,73.20321
696.60,73.23018
696.80,73.30981
697.00,73.30713
697.20,73.34399
697.40,73.32984
697.60,73.33339
697.80,73.30983
698.00,73.33633
698.20,73.28007
698.40,73.27742
698.60,73.30916
698.80,73.34719
699.00,73.33525
699.20,73.39761
699.40,73.43187
699.60,73.37058
699.80,73.37582
700.00,73.38191
700.20,73.35703
700.40,73.36065
700.60,73.41336
700.80,73.40684
701.00,73.44775
701.20,73.44610
701.40,73.42327
701.60,73.43347
701.80,73.39977
702.00,73.37767
702.20,73.39833
702.40,73.49076
702.60,73.53072
702.80,73.59897
703.00,73.60132
703.20,73.60834
703.40,73.52897
703.60,73.50578
703.80,73.48393
704.00,73.51329
704.20,73.46628
704.40,73.52116
704.60,73.55434
704.80,73.55346
705.00,73.54265
705.20,73.56035
705.40,73.54189
705.60,73.54506
705.80,73.53545
706.00,73.57532
706.20,73.62682
706.40,73.62736
706.60,73.58829
706.80,73.60940
707.00,73.59827
707.20,73.59822
707.40,73.59613
707.60,73.61078
707.80,73.62889
708.00,73.61489
708.20,73.60014
708.40,73.60395
708.60,73.54889
708.80,73.50632
709.00,73.48842
709.20,73.51093
709.40,73.56067
709.60,73.63216
709.80,73.67079
710.00,73.69470
710.20,73.66238
710.40,73.62564
710.60,73.58515
710.80,73.58714
711.00,73.56654
711.20,73.58508
711.40,73.56926
711.60,73.64245
711.80,73.66436
712.00,73.69887
712.20,73.65705
712.40,73.73592
712.60,73.72537
712.80,73.69266
713.00,73.66819
713.20,73.70340
713.40,73.67159
713.60,73.62224
713.80,73.60359
714.00,73.61331
714.20,73.61372
714.40,73.57383
714.60,73.63007
714.80,73.67589
715.00,73.70208
715.20,73.72429
715.40,73.72072
715.60,73.72943
715.80,73.73072
716.00,73.67289
716.20,73.68202
716.40,73.72249
716.60,73.69605
716.80,73.67399
717.00,73.73455
717.20,73.72280
717.40,73.73993
717.60,73.74739
717.80,73.74018
718.00,73.76433
718.20,73.80992
718.40,73.79854
718.60,73.81920
718.80,73.87376
719.00,73.84521
719.20,73.79698
719.40,73.79460
719.60,73.74636
719.80,73.70626
720.00,73.72037
720.20,73.74820
720.40,73.75727
720.60,73.75821
720.80,73.76089
721.00,73.81737
721.20,73.78060
721.40,73.78592
721.60,73.84080
721.80,73.86063
722.00,73.83952
722.20,73.86675
722.40,73.88308
722.60,73.90296
722.80,73.94401
723.00,73.97105
723.20,73.98973
723.40,73.92461
723.60,73.92036
723.80,73.92321
724.00,73.91191
724.20,73.89403
724.40,73.99552
724.60,73.97532
724.80,73.91392
725.00,73.91050
725.20,73.95546
725.40,73.94679
725.60,73.96381
725.80,74.05365
726.00,74.08038
726.20,74.11755
726.40,74.09506
726.60,74.13229
726.80,74.10613
727.00,74.11836
727.20,74.06815
727.40,74.09123
727.60,74.07467
727.80,74.07698
728.00,74.03431
728.20,74.11098
728.40,74.15234
728.60,74.18847
728.80,74.26269
729.00,74.32503
729.20,74.31902
729.40,74.27834
729.60,74.20976
729.80,74.15156
730.00,74.12746
730.20,74.10052
730.40,74.09059
730.60,74.20235
730.80,74.23726
731.00,74.24297
731.20,74.26570
731.40,74.30986
731.60,74.30172
731.80,74.32225
732.00,74.38213
732.20,74.35448
732.40,74.43303
732.60,74.44957
732.80,74.52936
733.00,74.55119
733.20,74.62490
733.40,74.56887
733.60,74.56669
733.80,74.46028
734.00,74.46379
734.20,74.47945
734.40,74.46775
734.60,74.44068
734.80,74.45402
735.00,74.37433
735.20,74.36708
735.40,74.42785
735.60,74.48433
735.80,74.60330
736.00,74.70937
736.20,74.72923
736.40,74.70233
736.60,74.70636
736.80,74.69118
737.00,74.68075
737.20,74.72878
737.40,74.83644
737.60,74.86885
737.80,74.88748
738.00,74.92806
738.20,74.89088
738.40,74.83935
738.60,74.83882
738.80,74.86539
739.00,74.81776
739.20,74.84407
739.40,74.85716
739.60,74.86396
739.80,74.81691
740.00,74.85530
740.20,74.84694
740.40,74.91100
740.60,74.93542
740.80,74.93818
741.00,75.03648
741.20,75.07900
741.40,75.01875
741.60,75.04290
741.80,75.05806
742.00,74.96257
742.20,74.93207
742.40,74.91522
742.60,74.88233
742.80,74.94700
743.00,75.00339
743.20,75.02831
743.40,75.09750
743.60,75.13674
743.80,75.15357
744.00,75.12741
744.20,75.20072
744.40,75.21631
744.60,75.22299
744.80,75.16643
745.00,75.14741
745.20,75.09384
745.40,75.06787
745.60,75.09343
745.80,75.10780
746.00,75.17806
746.20,75.22656
746.40,75.29433
746.60,75.32716
746.80,75.38399
747.00,75.42502
747.20,75.40326
747.40,75.30019
747.60,75.21840
747.80,75.28411
748.00,75.26193
748.20,75.29094
748.40,75.40791
748.60,75.48777
748.80,75.37923
749.00,75.38643
749.20,75.35883
749.40,75.33880
749.60,75.38481
749.80,75.43954
750.00,75.45685
750.20,75.53484
750.40,75.53287
750.60,75.50635
750.80,75.50458
751.00,75.48229
751.20,75.44417
751.40,75.52831
751.60,75.55333
751.80,75.56698
752.00,75.55499
752.20,75.57215
752.40,75.46763
752.60,75.43657
752.80,75.45545
753.00,75.49191
753.20,75.56267
753.40,75.56942
753.60,75.60896
753.80,75.59615
754.00,75.61062
754.20,75.55359
754.40,75.60534
754.60,75.58935
754.80,75.57741
755.00,75.56945
755.20,75.51729
755.40,75.57699
755.60,75.56465
755.80,75.59788
756.00,75.60624
756.20,75.64281
756.40,75.60166
756.60,75.64369
756.80,75.64197
757.00,75.68166
757.20,75.72676
757.40,75.77828
757.60,75.78356
757.80,75.79285
758.00,75.77284
758.20,75.73652
758.40,75.72929
758.60,75.72604
758.80,75.71373
759.00,75.74825
759.20,75.80726
759.40,75.80111
759.60,75.76607
759.80,75.80901
760.00,75.71973
760.20,75.68455
760.40,75.67581
760.60,75.63621
760.80,75.57335
761.00,75.54308
761.20,75.53419
761.40,75.53029
761.60,75.54253
761.80,75.58725
762.00,75.70921
762.20,75.68571
762.40,75.64531
762.60,75.70570
762.80,75.68346
763.00,75.53879
763.20,75.60449
763.40,75.63189
763.60,75.71970
763.80,75.74776
764.00,75.81027
764.20,75.74217
764.40,75.74148
764.60,75.62301
764.80,75.58936
765.00,75.61153
765.20,75.66128
765.40,75.63916
765.60,75.54732
765.80,75.50709
766.00,75.54286
766.20,75.53079
766.40,75.59206
766.60,75.67052
766.80,75.72094
767.00,75.69401
767.20,75.71286
767.40,75.63686
767.60,75.69065
767.80,75.63307
768.00,75.69597
768.20,75.61397
768.40,75.68097
768.60,75.59334
768.80,75.65303
769.00,75.57820
769.20,75.59727
769.40,75.52267
769.60,75.51469
769.80,75.50484
770.00,75.47317
770.20,75.42660
770.40,75.43437
770.60,75.50114
770.80,75.42798
771.00,75.45523
771.20,75.44724
771.40,75.39325
771.60,75.38904
771.80,75.42262
772.00,75.42253
772.20,75.50052
772.40,75.53765
772.60,75.53712
772.80,75.53956
773.00,75.52650
773.20,75.54237
773.40,75.55891
773.60,75.53152
773.80,75.55477
774.00,75.59708
774.20,75.52415
774.40,75.56435
774.60,75.56239
774.80,75.53463
775.00,75.46837
775.20,75.51556
775.40,75.45088
775.60,75.46149
775.80,75.45322
776.00,75.41799
776.20,75.33980
776.40,75.32198
776.60,75.23955
776.80,75.21237
777.00,75.23324
777.20,75.30191
777.40,75.29912
777.60,75.36218
777.80,75.33063
778.00,75.42369
778.20,75.45034
778.40,75.45727
778.60,75.43721
778.80,75.52350
779.00,75.42697
779.20,75.29256
779.40,75.31502
779.60,75.28886
779.80,75.19876
780.00,75.15142
780.20,75.20733
780.40,75.18313
780.60,75.12301
780.80,75.16771
781.00,75.18957
781.20,75.17561
781.40,75.16826
781.60,75.33422
781.80,75.37491
782.00,75.34967
782.20,75.27755
782.40,75.28229
782.60,75.12832
782.80,75.05678
783.00,75.06124
783.20,75.06987
783.40,75.03194
783.60,75.01905
783.80,74.98049
784.00,74.97563
784.20,75.02142
784.40,74.97618
784.60,74.96937
784.80,74.95012
785.00,74.95930
785.20,75.00495
785.40,75.05171
785.60,75.06911
785.80,75.10017
786.00,75.08665
786.20,75.09959
786.40,75.08452
786.60,75.15351
786.80,75.16614
787.00,75.18009
787.20,75.16924
787.40,75.12789
787.60,75.11804
787.80,75.09862
788.00,75.09676
788.20,75.07511
788.40,75.12144
788.60,75.12911
788.80,75.06188
789.00,75.08856
789.20,75.08141
789.40,75.02403
789.60,74.98385
789.80,75.06819
790.00,75.02623
790.20,75.00125
790.40,75.02077
790.60,74.96183
790.80,74.91235
791.00,74.87338
791.20,74.84291
791.40,74.82292
791.60,74.86547
791.80,74.87877
792.00,74.91490
792.20,74.98989
792.40,74.98087
792.60,75.03125
792.80,75.05264
793.00,75.02417
793.20,75.00330
793.40,74.99983
793.60,74.94376
793.80,74.94029
794.00,74.98814
794.20,74.87968
794.40,74.87594
794.60,74.87815
794.80,74.92117
795.00,74.98834
795.20,75.04435
795.40,75.05693
795.60,75.04063
795.80,75.01584
796.00,74.91822
796.20,74.95021
796.40,75.03630
796.60,74.98273
796.80,74.93328
797.00,75.01698
797.20,75.12379
797.40,75.03760
797.60,75.07150
797.80,75.18867
798.00,75.03957
798.20,74.92270
798.40,74.92108
798.60,74.96261
798.80,74.88603
799.00,74.97577
799.20,74.94004
799.40,74.96689
799.60,74.96201
799.80,74.96318
800.00,74.95577
