"SapphireSubstrate - RawData"
"Wavelength nm.","T%"
200.00,54.93104
201.00,52.98135
202.00,53.36733
203.00,54.36013
204.00,54.51967
205.00,53.24160
206.00,53.92925
207.00,53.66641
208.00,55.39495
209.00,54.20418
210.00,55.44329
211.00,56.08210
212.00,55.82951
213.00,56.07933
214.00,56.10844
215.00,55.91829
216.00,56.62532
217.00,55.88093
218.00,56.69562
219.00,56.34544
220.00,56.43611
221.00,56.38778
222.00,56.44565
223.00,56.78206
224.00,56.89839
225.00,57.08585
226.00,56.43733
227.00,57.20693
228.00,57.27325
229.00,57.01385
230.00,57.30164
231.00,57.68890
232.00,57.89400
233.00,57.88046
234.00,57.79269
235.00,58.13792
236.00,58.26827
237.00,58.96577
238.00,58.86563
239.00,58.88306
240.00,58.78175
241.00,58.84360
242.00,59.07251
243.00,59.43255
244.00,59.36577
245.00,59.78995
246.00,60.11370
247.00,59.87035
248.00,60.07494
249.00,60.42694
250.00,60.53406
251.00,60.91871
252.00,60.61920
253.00,61.11634
254.00,61.29402
255.00,61.27564
256.00,61.19253
257.00,61.30168
258.00,61.43203
259.00,61.71450
260.00,61.46685
261.00,61.78405
262.00,61.95735
263.00,61.61189
264.00,61.66545
265.00,61.88548
266.00,61.91896
267.00,62.10325
268.00,61.90724
269.00,62.29168
270.00,61.82650
271.00,62.08744
272.00,62.26776
273.00,62.30614
274.00,62.15355
275.00,62.08274
276.00,62.40304
277.00,62.37819
278.00,62.67917
279.00,62.18385
280.00,62.71083
281.00,62.50415
282.00,62.34221
283.00,62.62991
284.00,62.46905
285.00,62.87398
286.00,62.98470
287.00,63.05540
288.00,63.08883
289.00,63.18340
290.00,63.46780
291.00,63.55628
292.00,63.47319
293.00,63.81092
294.00,63.57231
295.00,63.70504
296.00,63.94539
297.00,64.29505
298.00,64.18868
299.00,63.90343
300.00,63.76275
301.00,64.20481
302.00,64.29102
303.00,64.43932
304.00,64.45189
305.00,64.36189
306.00,64.74986
307.00,64.39579
308.00,64.41876
309.00,64.56554
310.00,64.48767
311.00,64.78755
312.00,65.04858
313.00,64.67302
314.00,64.98032
315.00,64.83309
316.00,64.90192
317.00,65.11725
318.00,64.98440
319.00,64.89770
320.00,64.91077
321.00,65.12893
322.00,65.04359
323.00,65.20281
324.00,65.28707
325.00,65.03890
326.00,65.27827
327.00,65.23483
328.00,65.18466
329.00,65.19720
330.00,65.39028
331.00,65.51132
332.00,65.35185
333.00,65.52593
334.00,65.34151
335.00,65.51902
336.00,65.72656
337.00,65.75707
338.00,65.42799
339.00,65.52970
340.00,65.63946
341.00,65.61964
342.00,65.48179
343.00,65.85445
344.00,65.84646
345.00,65.76266
346.00,65.64629
347.00,65.77545
348.00,65.79173
349.00,65.80672
350.00,65.69446
351.00,66.05945
352.00,66.01776
353.00,65.85343
354.00,65.92429
355.00,66.14969
356.00,65.71661
357.00,65.82725
358.00,65.97065
359.00,66.10019
360.00,66.06342
361.00,66.06866
362.00,66.10411
363.00,66.05186
364.00,66.06372
365.00,66.10038
366.00,65.98747
367.00,66.07860
368.00,66.18811
369.00,65.98561
370.00,66.09024
371.00,66.04702
372.00,66.18443
373.00,66.19564
374.00,66.31737
375.00,66.16055
376.00,66.09226
377.00,66.22691
378.00,66.22285
379.00,66.20123
380.00,66.22903
381.00,66.26384
382.00,66.25818
383.00,66.21714
384.00,66.27688
385.00,66.33515
386.00,66.32861
387.00,66.32323
388.00,66.40020
389.00,66.42671
390.00,66.47332
391.00,66.39844
392.00,66.40289
393.00,66.49492
394.00,66.48470
395.00,66.36348
396.00,66.54621
397.00,66.47679
398.00,66.55076
399.00,66.52263
400.00,66.56610
401.00,66.59520
402.00,66.50605
403.00,66.60003
404.00,66.66846
405.00,66.66270
406.00,66.66435
407.00,66.66458
408.00,66.74511
409.00,66.70489
410.00,66.75713
411.00,66.69317
412.00,66.74644
413.00,66.80763
414.00,66.81732
415.00,66.80728
416.00,66.84919
417.00,66.82942
418.00,66.92870
419.00,66.81110
420.00,66.87667
421.00,66.93965
422.00,66.94338
423.00,66.94626
424.00,66.92393
425.00,66.99344
426.00,66.94757
427.00,66.80858
428.00,66.93444
429.00,67.03414
430.00,67.00955
431.00,67.05052
432.00,67.03342
433.00,67.12790
434.00,67.05334
435.00,67.12241
436.00,67.09678
437.00,67.11245
438.00,67.14623
439.00,67.08742
440.00,67.04208
441.00,67.18457
442.00,67.17137
443.00,67.18270
444.00,67.20602
445.00,67.31358
446.00,67.20127
447.00,67.33161
448.00,67.34992
449.00,67.26158
450.00,67.31932
451.00,67.35466
452.00,67.30009
453.00,67.44092
454.00,67.29922
455.00,67.34688
456.00,67.34006
457.00,67.43948
458.00,67.42599
459.00,67.44766
460.00,67.34648
461.00,67.44984
462.00,67.47212
463.00,67.52200
464.00,67.52126
465.00,67.43387
466.00,67.43199
467.00,67.54633
468.00,67.52546
469.00,67.62624
470.00,67.53814
471.00,67.54168
472.00,67.60296
473.00,67.60491
474.00,67.63769
475.00,67.50278
476.00,67.70315
477.00,67.66609
478.00,67.63613
479.00,67.67120
480.00,67.67584
481.00,67.69229
482.00,67.79763
483.00,67.65178
484.00,67.70328
485.00,67.71020
486.00,67.78091
487.00,67.76913
488.00,67.78490
489.00,67.72753
490.00,67.86397
491.00,67.88175
492.00,67.73981
493.00,67.85572
494.00,67.86345
495.00,67.85673
496.00,67.93330
497.00,67.89730
498.00,67.88313
499.00,68.01087
500.00,67.94959
501.00,67.91527
502.00,67.97454
503.00,67.95547
504.00,68.02642
505.00,68.04043
506.00,68.00529
507.00,68.03554
508.00,68.06976
509.00,67.97095
510.00,68.09545
511.00,68.12870
512.00,68.05584
513.00,68.10622
514.00,68.12298
515.00,68.16838
516.00,68.18347
517.00,68.17993
518.00,68.11568
519.00,68.17916
520.00,68.15571
521.00,68.14544
522.00,68.14592
523.00,68.25030
524.00,68.25233
525.00,68.31197
526.00,68.20821
527.00,68.35153
528.00,68.25032
529.00,68.30242
530.00,68.28411
531.00,68.36109
532.00,68.25832
533.00,68.31679
534.00,68.38440
535.00,68.35577
536.00,68.37656
537.00,68.45922
538.00,68.41903
539.00,68.38935
540.00,68.45714
541.00,68.44188
542.00,68.47347
543.00,68.43736
544.00,68.45467
545.00,68.49840
546.00,68.44114
547.00,68.48102
548.00,68.56010
549.00,68.54837
550.00,68.52261
551.00,68.62351
552.00,68.65494
553.00,68.61368
554.00,68.57907
555.00,68.58805
556.00,68.63431
557.00,68.59760
558.00,68.61594
559.00,68.62490
560.00,68.73476
561.00,68.73550
562.00,68.68288
563.00,68.73617
564.00,68.68910
565.00,68.74378
566.00,68.78210
567.00,68.75066
568.00,68.71666
569.00,68.77082
570.00,68.82665
571.00,68.75491
572.00,68.82315
573.00,68.83559
574.00,68.80211
575.00,68.92555
576.00,68.93633
577.00,68.87051
578.00,68.91100
579.00,68.79783
580.00,68.86164
581.00,68.85672
582.00,68.92036
583.00,68.94407
584.00,68.92903
585.00,68.95944
586.00,68.98531
587.00,68.99804
588.00,69.02412
589.00,68.99846
590.00,68.96740
591.00,69.00775
592.00,69.07494
593.00,69.07559
594.00,69.06090
595.00,69.07946
596.00,69.09196
597.00,69.09719
598.00,69.10747
599.00,69.12882
600.00,69.13825
601.00,69.12768
602.00,69.19582
603.00,69.10815
604.00,69.17154
605.00,69.20269
606.00,69.24329
607.00,69.19210
608.00,69.21197
609.00,69.25056
610.00,69.30836
611.00,69.26354
612.00,69.21839
613.00,69.31649
614.00,69.21822
615.00,69.31488
616.00,69.30923
617.00,69.26934
618.00,69.29651
619.00,69.33820
620.00,69.41025
621.00,69.42886
622.00,69.40376
623.00,69.37839
624.00,69.41466
625.00,69.49341
626.00,69.44797
627.00,69.42959
628.00,69.42337
629.00,69.38264
630.00,69.49617
631.00,69.52117
632.00,69.46361
633.00,69.49611
634.00,69.53040
635.00,69.58025
636.00,69.52818
637.00,69.54013
638.00,69.57566
639.00,69.52392
640.00,69.62875
641.00,69.62564
642.00,69.65887
643.00,69.62906
644.00,69.65427
645.00,69.68834
646.00,69.63549
647.00,69.69209
648.00,69.71049
649.00,69.82845
650.00,69.73742
651.00,69.68622
652.00,69.67938
653.00,69.79702
654.00,69.78281
655.00,69.83740
656.00,69.70492
657.00,69.71520
658.00,69.82316
659.00,69.80658
660.00,69.85388
661.00,69.80950
662.00,69.83073
663.00,69.90800
664.00,69.89092
665.00,69.90889
666.00,69.90316
667.00,69.93490
668.00,69.94240
669.00,69.97600
670.00,69.94653
671.00,69.92132
672.00,69.98922
673.00,69.94324
674.00,70.03211
675.00,69.97364
676.00,69.95559
677.00,69.85642
678.00,69.95491
679.00,70.11840
680.00,69.98131
681.00,69.91443
682.00,70.19364
683.00,70.07807
684.00,70.11877
685.00,70.16799
686.00,70.12697
687.00,70.07427
688.00,70.08855
689.00,70.14916
690.00,70.31534
691.00,70.24227
692.00,70.19979
693.00,70.20856
694.00,70.18402
695.00,70.35632
696.00,70.26830
697.00,70.21602
698.00,70.27546
699.00,70.30440
700.00,70.32736
701.00,70.34737
702.00,70.20771
703.00,70.25037
704.00,70.30548
705.00,70.31891
706.00,70.35697
707.00,70.46213
708.00,70.33665
709.00,70.42553
710.00,70.45845
711.00,70.44660
712.00,70.66195
713.00,70.45736
714.00,70.51622
715.00,70.49233
716.00,70.49304
717.00,70.37665
718.00,70.66136
719.00,70.51466
720.00,70.44146
721.00,70.51504
722.00,70.78727
723.00,70.52096
724.00,70.46755
725.00,70.53759
726.00,70.55840
727.00,70.71408
728.00,70.63901
729.00,70.78446
730.00,70.63381
731.00,70.69852
732.00,70.49888
733.00,70.68244
734.00,70.59675
735.00,70.81558
736.00,70.78991
737.00,70.80541
738.00,70.70012
739.00,70.70435
740.00,70.95424
741.00,70.64293
742.00,70.83492
743.00,70.91375
744.00,70.97619
745.00,70.70901
746.00,70.82350
747.00,70.60482
748.00,70.76343
749.00,70.98701
750.00,70.98650
751.00,71.01402
752.00,71.03223
753.00,71.10275
754.00,70.76975
755.00,70.76456
756.00,71.01806
757.00,70.88180
758.00,71.05794
759.00,71.14608
760.00,70.92282
761.00,70.94495
762.00,70.83355
763.00,71.09587
764.00,71.35943
765.00,71.06060
766.00,71.19483
767.00,70.83563
768.00,70.90159
769.00,71.14691
770.00,71.19883
771.00,71.06762
772.00,71.14339
773.00,71.14048
774.00,71.19507
775.00,71.16100
776.00,71.23842
777.00,71.27724
778.00,71.11185
779.00,71.08546
780.00,71.25617
781.00,70.95053
782.00,71.02903
783.00,71.38872
784.00,71.28456
785.00,71.25107
786.00,71.44514
787.00,71.41607
788.00,71.49717
789.00,71.22852
790.00,71.50263
791.00,71.26064
792.00,71.69755
793.00,71.38532
794.00,71.18313
795.00,71.22676
796.00,71.62406
797.00,71.24291
798.00,71.33513
799.00,71.40057
800.00,71.31857
