"SampleBVslow - RawData"
"Wavelength nm.","T%"
200.00,0.25397
201.00,0.22882
202.00,0.16925
203.00,0.09896
204.00,0.07711
205.00,0.12543
206.00,0.11042
207.00,0.12418
208.00,0.09398
209.00,0.10870
210.00,0.12250
211.00,0.09869
212.00,0.10124
213.00,0.10276
214.00,0.08322
215.00,0.09762
216.00,0.06712
217.00,0.07661
218.00,0.10306
219.00,0.08224
220.00,0.08245
221.00,0.08801
222.00,0.08528
223.00,0.09157
224.00,0.09723
225.00,0.09872
226.00,0.08250
227.00,0.10488
228.00,0.11271
229.00,0.12358
230.00,0.16677
231.00,0.17353
232.00,0.21166
233.00,0.25061
234.00,0.29891
235.00,0.34191
236.00,0.41474
237.00,0.49126
238.00,0.59995
239.00,0.72161
240.00,0.87123
241.00,1.07882
242.00,1.31623
243.00,1.67405
244.00,2.07601
245.00,2.58300
246.00,3.21994
247.00,3.97654
248.00,4.85291
249.00,5.88236
250.00,7.21469
251.00,8.85335
252.00,10.87947
253.00,13.19729
254.00,15.93950
255.00,19.01913
256.00,22.32198
257.00,25.61919
258.00,28.84741
259.00,31.94082
260.00,34.65975
261.00,37.06502
262.00,39.29672
263.00,41.36975
264.00,43.26972
265.00,45.01579
266.00,46.57284
267.00,48.20442
268.00,49.33844
269.00,50.33538
270.00,50.99263
271.00,51.48807
272.00,51.79338
273.00,51.95355
274.00,52.06187
275.00,51.99772
276.00,52.10665
277.00,52.24447
278.00,52.47547
279.00,52.64833
280.00,52.96251
281.00,53.53862
282.00,53.89727
283.00,54.46937
284.00,54.99882
285.00,55.61993
286.00,55.99989
287.00,56.52150
288.00,56.55003
289.00,56.88744
290.00,57.11673
291.00,57.10523
292.00,56.95396
293.00,56.88134
294.00,56.66383
295.00,56.71653
296.00,56.42086
297.00,56.31465
298.00,56.26032
299.00,56.18309
300.00,56.20922
301.00,56.21391
302.00,56.37262
303.00,56.46809
304.00,56.72281
305.00,57.01780
306.00,57.28492
307.00,57.62118
308.00,57.93514
309.00,58.19257
310.00,58.60235
311.00,58.71119
312.00,58.81389
313.00,59.07739
314.00,59.17805
315.00,59.22804
316.00,59.08625
317.00,59.13773
318.00,58.99360
319.00,58.98260
320.00,58.75152
321.00,58.65477
322.00,58.57947
323.00,58.13008
324.00,58.08277
325.00,57.68810
326.00,57.81019
327.00,57.69881
328.00,57.63956
329.00,57.53375
330.00,57.74947
331.00,57.73053
332.00,57.62605
333.00,57.86327
334.00,58.22325
335.00,58.16401
336.00,58.49235
337.00,58.64813
338.00,58.88588
339.00,59.19048
340.00,59.36041
341.00,59.48104
342.00,59.83632
343.00,59.87456
344.00,60.11640
345.00,60.14251
346.00,60.32434
347.00,60.31659
348.00,60.39318
349.00,60.48776
350.00,60.33245
351.00,60.30803
352.00,60.30413
353.00,60.11292
354.00,60.00715
355.00,59.92394
356.00,59.70690
357.00,59.67125
358.00,59.39583
359.00,59.25668
360.00,59.10271
361.00,59.07378
362.00,58.87685
363.00,58.70457
364.00,58.77090
365.00,58.64877
366.00,58.62005
367.00,58.61051
368.00,58.55303
369.00,58.59487
370.00,58.70965
371.00,58.71485
372.00,58.84780
373.00,58.97322
374.00,59.06252
375.00,59.24252
376.00,59.43943
377.00,59.60777
378.00,59.69607
379.00,59.90286
380.00,60.06364
381.00,60.24454
382.00,60.39460
383.00,60.58798
384.00,60.72271
385.00,60.86895
386.00,60.99359
387.00,61.13822
388.00,61.20933
389.00,61.28296
390.00,61.40202
391.00,61.41596
392.00,61.43315
393.00,61.50826
394.00,61.44435
395.00,61.44916
396.00,61.45825
397.00,61.25684
398.00,61.26785
399.00,61.17148
400.00,61.11236
401.00,60.99893
402.00,60.86240
403.00,60.78838
404.00,60.69570
405.00,60.56103
406.00,60.40761
407.00,60.28423
408.00,60.18818
409.00,60.09980
410.00,59.99926
411.00,59.93076
412.00,59.83283
413.00,59.77789
414.00,59.71312
415.00,59.69388
416.00,59.60477
417.00,59.55674
418.00,59.54914
419.00,59.52044
420.00,59.58048
421.00,59.58627
422.00,59.63256
423.00,59.65703
424.00,59.81359
425.00,59.83547
426.00,59.90667
427.00,60.00572
428.00,60.08798
429.00,60.20975
430.00,60.33994
431.00,60.47898
432.00,60.56480
433.00,60.72396
434.00,60.87154
435.00,60.97641
436.00,61.09558
437.00,61.24888
438.00,61.34257
439.00,61.55269
440.00,61.66729
441.00,61.81504
442.00,61.88043
443.00,62.01984
444.00,62.08836
445.00,62.18148
446.00,62.25430
447.00,62.31709
448.00,62.37926
449.00,62.52213
450.00,62.50231
451.00,62.54901
452.00,62.59036
453.00,62.58791
454.00,62.59070
455.00,62.56042
456.00,62.55740
457.00,62.52486
458.00,62.50923
459.00,62.47584
460.00,62.41731
461.00,62.38430
462.00,62.27081
463.00,62.21436
464.00,62.15729
465.00,62.04538
466.00,61.96237
467.00,61.88633
468.00,61.82470
469.00,61.70442
470.00,61.65512
471.00,61.54252
472.00,61.45074
473.00,61.37218
474.00,61.28964
475.00,61.18367
476.00,61.09704
477.00,61.03445
478.00,60.95540
479.00,60.89790
480.00,60.81654
481.00,60.77999
482.00,60.70379
483.00,60.66178
484.00,60.60995
485.00,60.59083
486.00,60.57048
487.00,60.57861
488.00,60.55219
489.00,60.57055
490.00,60.55454
491.00,60.58239
492.00,60.58952
493.00,60.56841
494.00,60.60159
495.00,60.64174
496.00,60.67845
497.00,60.77595
498.00,60.81007
499.00,60.83971
500.00,60.91277
501.00,60.99790
502.00,61.05419
503.00,61.14550
504.00,61.20766
505.00,61.32572
506.00,61.41732
507.00,61.48587
508.00,61.60111
509.00,61.70693
510.00,61.81529
511.00,61.89082
512.00,62.00532
513.00,62.11097
514.00,62.21731
515.00,62.29568
516.00,62.39752
517.00,62.53808
518.00,62.64397
519.00,62.74465
520.00,62.82865
521.00,62.90374
522.00,62.99299
523.00,63.03509
524.00,63.14567
525.00,63.19752
526.00,63.29002
527.00,63.40994
528.00,63.48621
529.00,63.51492
530.00,63.58445
531.00,63.59500
532.00,63.69685
533.00,63.74075
534.00,63.70347
535.00,63.78698
536.00,63.84791
537.00,63.86132
538.00,63.84460
539.00,63.87766
540.00,63.88449
541.00,63.86353
542.00,63.89244
543.00,63.86187
544.00,63.81550
545.00,63.84844
546.00,63.82595
547.00,63.81816
548.00,63.77931
549.00,63.78444
550.00,63.71236
551.00,63.69423
552.00,63.63905
553.00,63.59800
554.00,63.56558
555.00,63.48352
556.00,63.42780
557.00,63.35415
558.00,63.31173
559.00,63.28906
560.00,63.21647
561.00,63.14976
562.00,63.10761
563.00,63.03978
564.00,62.97289
565.00,62.93702
566.00,62.86064
567.00,62.79397
568.00,62.75157
569.00,62.69240
570.00,62.59917
571.00,62.60037
572.00,62.50711
573.00,62.45937
574.00,62.38874
575.00,62.35181
576.00,62.33699
577.00,62.21952
578.00,62.18578
579.00,62.17465
580.00,62.10157
581.00,62.09143
582.00,62.05213
583.00,62.02533
584.00,61.98289
585.00,62.00138
586.00,61.90144
587.00,61.95237
588.00,61.88884
589.00,61.90773
590.00,61.91140
591.00,61.86946
592.00,61.89831
593.00,61.86962
594.00,61.86384
595.00,61.88362
596.00,61.92548
597.00,61.91568
598.00,61.91627
599.00,61.92899
600.00,61.98452
601.00,62.00248
602.00,62.02081
603.00,62.07061
604.00,62.09567
605.00,62.13695
606.00,62.17180
607.00,62.22197
608.00,62.25806
609.00,62.29497
610.00,62.34055
611.00,62.38862
612.00,62.45787
613.00,62.53233
614.00,62.58491
615.00,62.62415
616.00,62.69088
617.00,62.75324
618.00,62.77952
619.00,62.89900
620.00,62.95749
621.00,63.04061
622.00,63.11678
623.00,63.11691
624.00,63.23981
625.00,63.28581
626.00,63.38278
627.00,63.45293
628.00,63.54265
629.00,63.63211
630.00,63.63896
631.00,63.72191
632.00,63.81075
633.00,63.89387
634.00,63.96178
635.00,64.03899
636.00,64.07887
637.00,64.21056
638.00,64.27408
639.00,64.32098
640.00,64.36251
641.00,64.43834
642.00,64.51738
643.00,64.60163
644.00,64.61465
645.00,64.67400
646.00,64.74271
647.00,64.80772
648.00,64.85462
649.00,64.93147
650.00,64.95430
651.00,65.01524
652.00,65.08720
653.00,65.14537
654.00,65.14019
655.00,65.22279
656.00,65.25652
657.00,65.33320
658.00,65.37967
659.00,65.39429
660.00,65.40821
661.00,65.44093
662.00,65.46784
663.00,65.50664
664.00,65.52613
665.00,65.58238
666.00,65.54212
667.00,65.59382
668.00,65.59674
669.00,65.60814
670.00,65.63856
671.00,65.61787
672.00,65.62771
673.00,65.67098
674.00,65.70064
675.00,65.72008
676.00,65.68449
677.00,65.61372
678.00,65.62822
679.00,65.62636
680.00,65.63079
681.00,65.60451
682.00,65.57438
683.00,65.59901
684.00,65.57384
685.00,65.56359
686.00,65.58025
687.00,65.54109
688.00,65.54234
689.00,65.47328
690.00,65.49228
691.00,65.46028
692.00,65.43987
693.00,65.39799
694.00,65.34733
695.00,65.29699
696.00,65.30144
697.00,65.32621
698.00,65.25047
699.00,65.23898
700.00,65.19014
701.00,65.15027
702.00,65.04858
703.00,65.09980
704.00,65.06688
705.00,64.96099
706.00,64.99511
707.00,65.03484
708.00,64.91280
709.00,64.82359
710.00,64.81217
711.00,64.76926
712.00,64.70533
713.00,64.76279
714.00,64.71658
715.00,64.72688
716.00,64.59749
717.00,64.62324
718.00,64.53745
719.00,64.58423
720.00,64.51080
721.00,64.50986
722.00,64.40962
723.00,64.35785
724.00,64.38416
725.00,64.34500
726.00,64.28441
727.00,64.36174
728.00,64.16689
729.00,64.18169
730.00,64.18908
731.00,64.11506
732.00,64.14790
733.00,64.09209
734.00,64.06505
735.00,64.18459
736.00,64.01289
737.00,64.04941
738.00,64.08523
739.00,63.96516
740.00,64.01004
741.00,63.99415
742.00,64.09015
743.00,64.02426
744.00,63.85541
745.00,63.86241
746.00,63.86755
747.00,63.82949
748.00,63.97102
749.00,63.96294
750.00,63.88685
751.00,63.77891
752.00,63.91144
753.00,63.86709
754.00,63.85811
755.00,63.88509
756.00,63.97972
757.00,63.90888
758.00,63.89583
759.00,63.81068
760.00,63.86037
761.00,64.01684
762.00,63.90096
763.00,63.90473
764.00,63.99652
765.00,64.00533
766.00,63.94231
767.00,64.01461
768.00,64.01752
769.00,64.08590
770.00,63.98144
771.00,64.09253
772.00,63.99589
773.00,64.08820
774.00,64.13780
775.00,64.05882
776.00,64.16082
777.00,64.28902
778.00,64.31111
779.00,64.28931
780.00,64.30638
781.00,64.29695
782.00,64.38125
783.00,64.48894
784.00,64.31749
785.00,64.44325
786.00,64.51237
787.00,64.42155
788.00,64.49034
789.00,64.63557
790.00,64.64528
791.00,64.48801
792.00,64.82967
793.00,64.77828
794.00,64.66133
795.00,64.87651
796.00,64.77324
797.00,64.87028
798.00,64.94365
799.00,64.92029
800.00,65.02711
