"ResinTtansmittance - RawData"
"Wavelength nm.","T%"
200.00,0.00607
200.20,0.01441
200.40,0.02156
200.60,0.02827
200.80,0.01818
201.00,0.01947
201.20,0.01881
201.40,0.02917
201.60,0.03309
201.80,0.03808
202.00,0.02986
202.20,0.02319
202.40,0.00786
202.60,0.00251
202.80,0.00549
203.00,0.00585
203.20,0.01390
203.40,0.01213
203.60,0.01303
203.80,0.01054
204.00,0.01069
204.20,0.00964
204.40,0.01325
204.60,0.01437
204.80,0.02044
205.00,0.01778
205.20,0.01601
205.40,0.01687
205.60,0.00922
205.80,0.00828
206.00,0.01040
206.20,0.01107
206.40,0.01418
206.60,0.01720
206.80,0.02047
207.00,0.02529
207.20,0.02044
207.40,0.02316
207.60,0.02884
207.80,0.02301
208.00,0.02307
208.20,0.02208
208.40,0.01705
208.60,0.01416
208.80,0.01574
209.00,0.01202
209.20,0.01937
209.40,0.01726
209.60,0.01976
209.80,0.01789
210.00,0.01166
210.20,0.00964
210.40,0.01575
210.60,0.01720
210.80,0.02225
211.00,0.03239
211.20,0.02947
211.40,0.02600
211.60,0.01865
211.80,0.01688
212.00,0.01328
212.20,0.01579
212.40,0.01342
212.60,0.01774
212.80,0.01679
213.00,0.01710
213.20,0.01620
213.40,0.01369
213.60,0.00956
213.80,0.00926
214.00,0.01056
214.20,0.01000
214.40,0.01460
214.60,0.01602
214.80,0.01471
215.00,0.01323
215.20,0.01337
215.40,0.01059
215.60,0.01179
215.80,0.01300
216.00,0.01411
216.20,0.01356
216.40,0.01270
216.60,0.01207
216.80,0.01186
217.00,0.01129
217.20,0.01204
217.40,0.01420
217.60,0.01444
217.80,0.01664
218.00,0.01515
218.20,0.01526
218.40,0.01621
218.60,0.01489
218.80,0.01473
219.00,0.01714
219.20,0.01941
219.40,0.01794
219.60,0.01942
219.80,0.01857
220.00,0.01592
220.20,0.01197
220.40,0.01238
220.60,0.01018
220.80,0.00989
221.00,0.01032
221.20,0.01225
221.40,0.01252
221.60,0.01511
221.80,0.01560
222.00,0.01476
222.20,0.01392
222.40,0.01376
222.60,0.01158
222.80,0.01343
223.00,0.01306
223.20,0.01165
223.40,0.01270
223.60,0.01456
223.80,0.01331
224.00,0.01490
224.20,0.01797
224.40,0.01722
224.60,0.01398
224.80,0.01311
225.00,0.01440
225.20,0.01376
225.40,0.01390
225.60,0.01762
225.80,0.01687
226.00,0.01770
226.20,0.01697
226.40,0.01538
226.60,0.01487
226.80,0.01676
227.00,0.01568
227.20,0.01812
227.40,0.01999
227.60,0.01979
227.80,0.01940
228.00,0.01879
228.20,0.01546
228.40,0.01413
228.60,0.01506
228.80,0.01588
229.00,0.01633
229.20,0.01581
229.40,0.01757
229.60,0.01623
229.80,0.01717
230.00,0.01739
230.20,0.02125
230.40,0.02031
230.60,0.02060
230.80,0.01852
231.00,0.01795
231.20,0.01524
231.40,0.01694
231.60,0.01834
231.80,0.01799
232.00,0.01950
232.20,0.02195
232.40,0.02265
232.60,0.02086
232.80,0.02122
233.00,0.02048
233.20,0.01803
233.40,0.01612
233.60,0.01818
233.80,0.01779
234.00,0.01800
234.20,0.01853
234.40,0.01767
234.60,0.01571
234.80,0.01751
235.00,0.01668
235.20,0.01779
235.40,0.01852
235.60,0.02176
235.80,0.01989
236.00,0.01920
236.20,0.01902
236.40,0.02044
236.60,0.01767
236.80,0.01879
237.00,0.01882
237.20,0.01750
237.40,0.01668
237.60,0.01639
237.80,0.01479
238.00,0.01559
238.20,0.01513
238.40,0.01485
238.60,0.01560
238.80,0.01587
239.00,0.01522
239.20,0.01585
239.40,0.01475
239.60,0.01391
239.80,0.01321
240.00,0.01300
240.20,0.01283
240.40,0.01313
240.60,0.01451
240.80,0.01502
241.00,0.01611
241.20,0.01720
241.40,0.01827
241.60,0.01749
241.80,0.01861
242.00,0.01624
242.20,0.01480
242.40,0.01362
242.60,0.01234
242.80,0.01115
243.00,0.01285
243.20,0.01459
243.40,0.01411
243.60,0.01596
243.80,0.01614
244.00,0.01678
244.20,0.01627
244.40,0.01622
244.60,0.01524
244.80,0.01435
245.00,0.01275
245.20,0.01174
245.40,0.01151
245.60,0.01104
245.80,0.01076
246.00,0.01094
246.20,0.01119
246.40,0.01289
246.60,0.01395
246.80,0.01426
247.00,0.01457
247.20,0.01552
247.40,0.01436
247.60,0.01406
247.80,0.01469
248.00,0.01473
248.20,0.01303
248.40,0.01348
248.60,0.01236
248.80,0.01214
249.00,0.01193
249.20,0.01117
249.40,0.00973
249.60,0.01041
249.80,0.01012
250.00,0.00918
250.20,0.00898
250.40,0.00990
250.60,0.01042
250.80,0.00987
251.00,0.00975
251.20,0.01071
251.40,0.01116
251.60,0.00986
251.80,0.00992
252.00,0.01180
252.20,0.01131
252.40,0.00986
252.60,0.00999
252.80,0.01044
253.00,0.00836
253.20,0.01045
253.40,0.01090
253.60,0.01181
253.80,0.01166
254.00,0.01239
254.20,0.01102
254.40,0.01070
254.60,0.00996
254.80,0.00995
255.00,0.00984
255.20,0.00933
255.40,0.00955
255.60,0.00979
255.80,0.00899
256.00,0.00996
256.20,0.00960
256.40,0.00956
256.60,0.00890
256.80,0.01076
257.00,0.00991
257.20,0.01034
257.40,0.01051
257.60,0.01135
257.80,0.01023
258.00,0.00995
258.20,0.00940
258.40,0.00961
258.60,0.00939
258.80,0.01137
259.00,0.01110
259.20,0.01213
259.40,0.01115
259.60,0.01015
259.80,0.00796
260.00,0.00934
260.20,0.00954
260.40,0.01088
260.60,0.01134
260.80,0.01194
261.00,0.01103
261.20,0.01035
261.40,0.01017
261.60,0.01022
261.80,0.01031
262.00,0.01131
262.20,0.01140
262.40,0.01177
262.60,0.01181
262.80,0.01131
263.00,0.01004
263.20,0.01112
263.40,0.01094
263.60,0.01204
263.80,0.01179
264.00,0.01258
264.20,0.01145
264.40,0.01178
264.60,0.01147
264.80,0.01241
265.00,0.01273
265.20,0.01176
265.40,0.01149
265.60,0.01233
265.80,0.01239
266.00,0.01156
266.20,0.01309
266.40,0.01276
266.60,0.01159
266.80,0.01107
267.00,0.01219
267.20,0.01228
267.40,0.01246
267.60,0.01316
267.80,0.01392
268.00,0.01319
268.20,0.01324
268.40,0.01285
268.60,0.01239
268.80,0.01130
269.00,0.01144
269.20,0.00993
269.40,0.00958
269.60,0.00868
269.80,0.00903
270.00,0.00857
270.20,0.00879
270.40,0.00918
270.60,0.00969
270.80,0.00865
271.00,0.00851
271.20,0.00871
271.40,0.00875
271.60,0.00904
271.80,0.01045
272.00,0.01023
272.20,0.01035
272.40,0.01044
272.60,0.00956
272.80,0.00874
273.00,0.00820
273.20,0.00890
273.40,0.00806
273.60,0.00873
273.80,0.00891
274.00,0.00986
274.20,0.00968
274.40,0.01006
274.60,0.01044
274.80,0.01025
275.00,0.01041
275.20,0.01013
275.40,0.01058
275.60,0.01060
275.80,0.01112
276.00,0.01220
276.20,0.01228
276.40,0.01167
276.60,0.01138
276.80,0.01106
277.00,0.01026
277.20,0.00981
277.40,0.01031
277.60,0.00960
277.80,0.01004
278.00,0.01011
278.20,0.01014
278.40,0.00969
278.60,0.01074
278.80,0.01038
279.00,0.01037
279.20,0.01045
279.40,0.01121
279.60,0.01074
279.80,0.01212
280.00,0.01192
280.20,0.01211
280.40,0.01215
280.60,0.01260
280.80,0.01212
281.00,0.01203
281.20,0.01205
281.40,0.01166
281.60,0.01126
281.80,0.01005
282.00,0.01098
282.20,0.01047
282.40,0.01125
282.60,0.01090
282.80,0.01130
283.00,0.00956
283.20,0.01017
283.40,0.00978
283.60,0.00989
283.80,0.00995
284.00,0.01181
284.20,0.01278
284.40,0.01265
284.60,0.01293
284.80,0.01329
285.00,0.01233
285.20,0.01153
285.40,0.01109
285.60,0.01143
285.80,0.01132
286.00,0.01135
286.20,0.01205
286.40,0.01181
286.60,0.01284
286.80,0.01259
287.00,0.01255
287.20,0.01237
287.40,0.01319
287.60,0.01213
287.80,0.01229
288.00,0.01203
288.20,0.01190
288.40,0.01205
288.60,0.01141
288.80,0.01093
289.00,0.01111
289.20,0.01109
289.40,0.01163
289.60,0.01219
289.80,0.01256
290.00,0.01251
290.20,0.01157
290.40,0.01041
290.60,0.01001
290.80,0.01046
291.00,0.01022
291.20,0.01124
291.40,0.01097
291.60,0.01088
291.80,0.00993
292.00,0.01005
292.20,0.00980
292.40,0.01026
292.60,0.01062
292.80,0.01083
293.00,0.01107
293.20,0.01098
293.40,0.01176
293.60,0.01180
293.80,0.01192
294.00,0.01151
294.20,0.01102
294.40,0.01011
294.60,0.00897
294.80,0.00959
295.00,0.00934
295.20,0.00945
295.40,0.00873
295.60,0.00941
295.80,0.00848
296.00,0.00854
296.20,0.00780
296.40,0.00951
296.60,0.00989
296.80,0.01003
297.00,0.01110
297.20,0.01204
297.40,0.01097
297.60,0.01108
297.80,0.01151
298.00,0.01148
298.20,0.01181
298.40,0.01171
298.60,0.01148
298.80,0.01082
299.00,0.01007
299.20,0.00965
299.40,0.00943
299.60,0.00986
299.80,0.01070
300.00,0.01105
300.20,0.01087
300.40,0.01131
300.60,0.01094
300.80,0.01098
301.00,0.01127
301.20,0.01160
301.40,0.01179
301.60,0.01200
301.80,0.01181
302.00,0.01098
302.20,0.01102
302.40,0.01115
302.60,0.01011
302.80,0.01039
303.00,0.01100
303.20,0.01049
303.40,0.01106
303.60,0.01201
303.80,0.01144
304.00,0.01185
304.20,0.01272
304.40,0.01183
304.60,0.01197
304.80,0.01270
305.00,0.01209
305.20,0.01219
305.40,0.01291
305.60,0.01254
305.80,0.01286
306.00,0.01300
306.20,0.01198
306.40,0.01139
306.60,0.01118
306.80,0.01049
307.00,0.01081
307.20,0.01209
307.40,0.01214
307.60,0.01234
307.80,0.01296
308.00,0.01296
308.20,0.01251
308.40,0.01301
308.60,0.01332
308.80,0.01351
309.00,0.01305
309.20,0.01337
309.40,0.01379
309.60,0.01386
309.80,0.01373
310.00,0.01377
310.20,0.01413
310.40,0.01441
310.60,0.01523
310.80,0.01552
311.00,0.01685
311.20,0.01732
311.40,0.01658
311.60,0.01647
311.80,0.01657
312.00,0.01549
312.20,0.01541
312.40,0.01601
312.60,0.01606
312.80,0.01576
313.00,0.01731
313.20,0.01672
313.40,0.01754
313.60,0.01772
313.80,0.01732
314.00,0.01665
314.20,0.01600
314.40,0.01588
314.60,0.01609
314.80,0.01711
315.00,0.01847
315.20,0.02004
315.40,0.02015
315.60,0.01971
315.80,0.01939
316.00,0.01855
316.20,0.01761
316.40,0.01827
316.60,0.02000
316.80,0.01994
317.00,0.02051
317.20,0.02243
317.40,0.02336
317.60,0.02311
317.80,0.02403
318.00,0.02393
318.20,0.02310
318.40,0.02154
318.60,0.02176
318.80,0.02204
319.00,0.02244
319.20,0.02331
319.40,0.02422
319.60,0.02361
319.80,0.02402
320.00,0.02432
320.20,0.02422
320.40,0.02496
320.60,0.02578
320.80,0.02602
321.00,0.02697
321.20,0.02742
321.40,0.02651
321.60,0.02628
321.80,0.02629
322.00,0.02591
322.20,0.02587
322.40,0.02696
322.60,0.02851
322.80,0.02859
323.00,0.02935
323.20,0.03027
323.40,0.03143
323.60,0.03236
323.80,0.03343
324.00,0.03319
324.20,0.03462
324.40,0.03370
324.60,0.03288
324.80,0.03345
325.00,0.03439
325.20,0.03381
325.40,0.03443
325.60,0.03639
325.80,0.03716
326.00,0.03754
326.20,0.03782
326.40,0.03861
326.60,0.03708
326.80,0.03766
327.00,0.03747
327.20,0.03741
327.40,0.03723
327.60,0.03776
327.80,0.03751
328.00,0.03873
328.20,0.03971
328.40,0.04051
328.60,0.04173
328.80,0.04341
329.00,0.04302
329.20,0.04335
329.40,0.04304
329.60,0.04250
329.80,0.04129
330.00,0.04186
330.20,0.04255
330.40,0.04369
330.60,0.04518
330.80,0.04691
331.00,0.04731
331.20,0.04733
331.40,0.04899
331.60,0.04924
331.80,0.04932
332.00,0.04951
332.20,0.05046
332.40,0.05015
332.60,0.05120
332.80,0.05192
333.00,0.05345
333.20,0.05434
333.40,0.05518
333.60,0.05646
333.80,0.05691
334.00,0.05883
334.20,0.05976
334.40,0.05979
334.60,0.06045
334.80,0.06175
335.00,0.06131
335.20,0.06173
335.40,0.06317
335.60,0.06351
335.80,0.06444
336.00,0.06536
336.20,0.06638
336.40,0.06727
336.60,0.06791
336.80,0.06887
337.00,0.06941
337.20,0.06999
337.40,0.07071
337.60,0.07193
337.80,0.07204
338.00,0.07218
338.20,0.07348
338.40,0.07403
338.60,0.07382
338.80,0.07456
339.00,0.07588
339.20,0.07615
339.40,0.07725
339.60,0.07833
339.80,0.07960
340.00,0.08012
340.20,0.08132
340.40,0.08133
340.60,0.08167
340.80,0.08186
341.00,0.08327
341.20,0.08353
341.40,0.08410
341.60,0.08463
341.80,0.08478
342.00,0.08455
342.20,0.08513
342.40,0.08676
342.60,0.08776
342.80,0.08843
343.00,0.08999
343.20,0.08959
343.40,0.08931
343.60,0.08887
343.80,0.08949
344.00,0.08992
344.20,0.09041
344.40,0.09100
344.60,0.09236
344.80,0.09228
345.00,0.09265
345.20,0.09294
345.40,0.09295
345.60,0.09297
345.80,0.09281
346.00,0.09217
346.20,0.09380
346.40,0.09358
346.60,0.09433
346.80,0.09597
347.00,0.09691
347.20,0.09737
347.40,0.09885
347.60,0.09952
347.80,0.09975
348.00,0.10135
348.20,0.10193
348.40,0.10254
348.60,0.10178
348.80,0.10294
349.00,0.10342
349.20,0.10255
349.40,0.10236
349.60,0.10504
349.80,0.10507
350.00,0.10477
350.20,0.10684
350.40,0.10804
350.60,0.10670
350.80,0.10677
351.00,0.10612
351.20,0.10556
351.40,0.10563
351.60,0.10736
351.80,0.10725
352.00,0.10875
352.20,0.10958
352.40,0.11018
352.60,0.11102
352.80,0.11223
353.00,0.11256
353.20,0.11329
353.40,0.11447
353.60,0.11461
353.80,0.11504
354.00,0.11618
354.20,0.11623
354.40,0.11562
354.60,0.11513
354.80,0.11547
355.00,0.11609
355.20,0.11707
355.40,0.11904
355.60,0.12010
355.80,0.12055
356.00,0.11989
356.20,0.12061
356.40,0.11964
356.60,0.11952
356.80,0.11991
357.00,0.12073
357.20,0.12054
357.40,0.12198
357.60,0.12300
357.80,0.12292
358.00,0.12390
358.20,0.12454
358.40,0.12448
358.60,0.12448
358.80,0.12571
359.00,0.12572
359.20,0.12503
359.40,0.12451
359.60,0.12519
359.80,0.12452
360.00,0.12402
360.20,0.12568
360.40,0.12569
360.60,0.12412
360.80,0.12563
361.00,0.12643
361.20,0.12517
361.40,0.12619
361.60,0.12731
361.80,0.12656
362.00,0.12594
362.20,0.12545
362.40,0.12583
362.60,0.12578
362.80,0.12491
363.00,0.12397
363.20,0.12456
363.40,0.12282
363.60,0.12312
363.80,0.12375
364.00,0.12521
364.20,0.12446
364.40,0.12418
364.60,0.12324
364.80,0.12400
365.00,0.12330
365.20,0.12392
365.40,0.12442
365.60,0.12417
365.80,0.12295
366.00,0.12297
366.20,0.12389
366.40,0.12455
366.60,0.12539
366.80,0.12526
367.00,0.12491
367.20,0.12482
367.40,0.12484
367.60,0.12547
367.80,0.12644
368.00,0.12682
368.20,0.12647
368.40,0.12606
368.60,0.12582
368.80,0.12461
369.00,0.12516
369.20,0.12509
369.40,0.12648
369.60,0.12522
369.80,0.12585
370.00,0.12572
370.20,0.12551
370.40,0.12663
370.60,0.12914
370.80,0.13017
371.00,0.13157
371.20,0.13327
371.40,0.13258
371.60,0.13101
371.80,0.13145
372.00,0.13208
372.20,0.13153
372.40,0.13125
372.60,0.13235
372.80,0.13232
373.00,0.13145
373.20,0.13199
373.40,0.13350
373.60,0.13372
373.80,0.13487
374.00,0.13600
374.20,0.13731
374.40,0.13677
374.60,0.13808
374.80,0.13785
375.00,0.13749
375.20,0.13669
375.40,0.13744
375.60,0.13781
375.80,0.13838
376.00,0.13988
376.20,0.14023
376.40,0.13984
376.60,0.13943
376.80,0.13976
377.00,0.13850
377.20,0.13878
377.40,0.13971
377.60,0.14080
377.80,0.14123
378.00,0.14196
378.20,0.14297
378.40,0.14249
378.60,0.14160
378.80,0.14098
379.00,0.14122
379.20,0.14080
379.40,0.14163
379.60,0.14097
379.80,0.14115
380.00,0.14060
380.20,0.13990
380.40,0.13974
380.60,0.14022
380.80,0.14011
381.00,0.14031
381.20,0.14061
381.40,0.13998
381.60,0.13964
381.80,0.13901
382.00,0.13891
382.20,0.13841
382.40,0.13789
382.60,0.13771
382.80,0.13765
383.00,0.13708
383.20,0.13609
383.40,0.13516
383.60,0.13462
383.80,0.13385
384.00,0.13270
384.20,0.13273
384.40,0.13299
384.60,0.13250
384.80,0.13160
385.00,0.13084
385.20,0.13071
385.40,0.12971
385.60,0.12953
385.80,0.13062
386.00,0.12989
386.20,0.12936
386.40,0.12930
386.60,0.12900
386.80,0.12794
387.00,0.12780
387.20,0.12712
387.40,0.12711
387.60,0.12674
387.80,0.12675
388.00,0.12733
388.20,0.12813
388.40,0.12770
388.60,0.12714
388.80,0.12657
389.00,0.12643
389.20,0.12547
389.40,0.12544
389.60,0.12600
389.80,0.12525
390.00,0.12556
390.20,0.12566
390.40,0.12541
390.60,0.12562
390.80,0.12680
391.00,0.12612
391.20,0.12635
391.40,0.12613
391.60,0.12547
391.80,0.12504
392.00,0.12487
392.20,0.12442
392.40,0.12553
392.60,0.12581
392.80,0.12579
393.00,0.12627
393.20,0.12703
393.40,0.12667
393.60,0.12667
393.80,0.12694
394.00,0.12707
394.20,0.12653
394.40,0.12568
394.60,0.12535
394.80,0.12564
395.00,0.12589
395.20,0.12645
395.40,0.12703
395.60,0.12782
395.80,0.12713
396.00,0.12717
396.20,0.12680
396.40,0.12729
396.60,0.12745
396.80,0.12832
397.00,0.12848
397.20,0.12890
397.40,0.12904
397.60,0.12927
397.80,0.13002
398.00,0.13032
398.20,0.13053
398.40,0.13104
398.60,0.13174
398.80,0.13273
399.00,0.13394
399.20,0.13469
399.40,0.13541
399.60,0.13578
399.80,0.13525
400.00,0.13526
400.20,0.13560
400.40,0.13555
400.60,0.13681
400.80,0.13743
401.00,0.13770
401.20,0.13896
401.40,0.13976
401.60,0.13977
401.80,0.14045
402.00,0.14115
402.20,0.14102
402.40,0.14059
402.60,0.14051
402.80,0.14016
403.00,0.13998
403.20,0.13964
403.40,0.14062
403.60,0.14021
403.80,0.13989
404.00,0.13982
404.20,0.13970
404.40,0.13903
404.60,0.13949
404.80,0.14017
405.00,0.13983
405.20,0.13960
405.40,0.13926
405.60,0.13926
405.80,0.13845
406.00,0.13789
406.20,0.13819
406.40,0.13833
406.60,0.13787
406.80,0.13777
407.00,0.13721
407.20,0.13706
407.40,0.13628
407.60,0.13513
407.80,0.13430
408.00,0.13374
408.20,0.13230
408.40,0.13147
408.60,0.13045
408.80,0.13041
409.00,0.12994
409.20,0.12843
409.40,0.12696
409.60,0.12581
409.80,0.12423
410.00,0.12318
410.20,0.12238
410.40,0.12162
410.60,0.12079
410.80,0.11987
411.00,0.11861
411.20,0.11777
411.40,0.11683
411.60,0.11552
411.80,0.11389
412.00,0.11267
412.20,0.11153
412.40,0.11020
412.60,0.10935
412.80,0.10808
413.00,0.10709
413.20,0.10585
413.40,0.10449
413.60,0.10353
413.80,0.10248
414.00,0.10181
414.20,0.10083
414.40,0.10059
414.60,0.09953
414.80,0.09880
415.00,0.09758
415.20,0.09635
415.40,0.09488
415.60,0.09354
415.80,0.09224
416.00,0.09130
416.20,0.09075
416.40,0.09006
416.60,0.08927
416.80,0.08856
417.00,0.08735
417.20,0.08665
417.40,0.08578
417.60,0.08521
417.80,0.08468
418.00,0.08493
418.20,0.08438
418.40,0.08445
418.60,0.08485
418.80,0.08492
419.00,0.08537
419.20,0.08586
419.40,0.08679
419.60,0.08726
419.80,0.08826
420.00,0.08940
420.20,0.09145
420.40,0.09277
420.60,0.09522
420.80,0.09779
421.00,0.09995
421.20,0.10309
421.40,0.10646
421.60,0.10989
421.80,0.11379
422.00,0.11788
422.20,0.12181
422.40,0.12697
422.60,0.13204
422.80,0.13696
423.00,0.14329
423.20,0.14923
423.40,0.15466
423.60,0.16021
423.80,0.16719
424.00,0.17300
424.20,0.17993
424.40,0.18707
424.60,0.19393
424.80,0.20058
425.00,0.20765
425.20,0.21424
425.40,0.22101
425.60,0.22899
425.80,0.23646
426.00,0.24424
426.20,0.25160
426.40,0.25958
426.60,0.26692
426.80,0.27495
427.00,0.28182
427.20,0.29071
427.40,0.29849
427.60,0.30572
427.80,0.31273
428.00,0.32053
428.20,0.32689
428.40,0.33299
428.60,0.34044
428.80,0.34767
429.00,0.35469
429.20,0.36162
429.40,0.36931
429.60,0.37672
429.80,0.38371
430.00,0.39127
430.20,0.39773
430.40,0.40368
430.60,0.40989
430.80,0.41617
431.00,0.42216
431.20,0.42892
431.40,0.43545
431.60,0.44094
431.80,0.44721
432.00,0.45361
432.20,0.45990
432.40,0.46603
432.60,0.47286
432.80,0.47865
433.00,0.48340
433.20,0.48870
433.40,0.49457
433.60,0.49983
433.80,0.50476
434.00,0.51129
434.20,0.51630
434.40,0.52165
434.60,0.52628
434.80,0.53161
435.00,0.53607
435.20,0.53971
435.40,0.54365
435.60,0.54820
435.80,0.55228
436.00,0.55612
436.20,0.56224
436.40,0.56722
436.60,0.57204
436.80,0.57660
437.00,0.58051
437.20,0.58419
437.40,0.58842
437.60,0.59136
437.80,0.59525
438.00,0.60024
438.20,0.60425
438.40,0.60795
438.60,0.61281
438.80,0.61625
439.00,0.61960
439.20,0.62416
439.40,0.62718
439.60,0.63149
439.80,0.63678
440.00,0.64068
440.20,0.64406
440.40,0.64872
440.60,0.65049
440.80,0.65371
441.00,0.65716
441.20,0.65932
441.40,0.66107
441.60,0.66433
441.80,0.66649
442.00,0.66907
442.20,0.67198
442.40,0.67608
442.60,0.67914
442.80,0.68199
443.00,0.68512
443.20,0.68863
443.40,0.69082
443.60,0.69489
443.80,0.69839
444.00,0.70095
444.20,0.70343
444.40,0.70601
444.60,0.70856
444.80,0.71108
445.00,0.71393
445.20,0.71703
445.40,0.72004
445.60,0.72163
445.80,0.72472
446.00,0.72658
446.20,0.72824
446.40,0.73186
446.60,0.73578
446.80,0.73713
447.00,0.74105
447.20,0.74320
447.40,0.74427
447.60,0.74665
447.80,0.74980
448.00,0.75156
448.20,0.75517
448.40,0.75943
448.60,0.76173
448.80,0.76279
449.00,0.76533
449.20,0.76739
449.40,0.76889
449.60,0.77125
449.80,0.77521
450.00,0.77882
450.20,0.78221
450.40,0.78488
450.60,0.78776
450.80,0.78954
451.00,0.79150
451.20,0.79357
451.40,0.79539
451.60,0.79834
451.80,0.80092
452.00,0.80259
452.20,0.80441
452.40,0.80701
452.60,0.80759
452.80,0.81049
453.00,0.81082
453.20,0.81329
453.40,0.81584
453.60,0.81917
453.80,0.82128
454.00,0.82566
454.20,0.82696
454.40,0.83010
454.60,0.83116
454.80,0.83286
455.00,0.83459
455.20,0.83818
455.40,0.83943
455.60,0.84263
455.80,0.84437
456.00,0.84689
456.20,0.84873
456.40,0.85151
456.60,0.85374
456.80,0.85666
457.00,0.85931
457.20,0.86268
457.40,0.86522
457.60,0.86750
457.80,0.86991
458.00,0.87240
458.20,0.87413
458.40,0.87559
458.60,0.87795
458.80,0.88023
459.00,0.88248
459.20,0.88335
459.40,0.88535
459.60,0.88745
459.80,0.88939
460.00,0.89038
460.20,0.89309
460.40,0.89466
460.60,0.89667
460.80,0.89859
461.00,0.90137
461.20,0.90263
461.40,0.90555
461.60,0.90750
461.80,0.91037
462.00,0.91210
462.20,0.91632
462.40,0.91855
462.60,0.92015
462.80,0.92258
463.00,0.92393
463.20,0.92460
463.40,0.92613
463.60,0.92802
463.80,0.92966
464.00,0.93264
464.20,0.93385
464.40,0.93613
464.60,0.93939
464.80,0.93992
465.00,0.94087
465.20,0.94282
465.40,0.94386
465.60,0.94387
465.80,0.94558
466.00,0.94778
466.20,0.94958
466.40,0.95154
466.60,0.95370
466.80,0.95457
467.00,0.95627
467.20,0.95752
467.40,0.95749
467.60,0.95822
467.80,0.95998
468.00,0.96095
468.20,0.96295
468.40,0.96554
468.60,0.96700
468.80,0.96794
469.00,0.96749
469.20,0.96791
469.40,0.96947
469.60,0.96969
469.80,0.97070
470.00,0.97326
470.20,0.97291
470.40,0.97016
470.60,0.97159
470.80,0.97196
471.00,0.97212
471.20,0.97440
471.40,0.97706
471.60,0.97724
471.80,0.97830
472.00,0.97883
472.20,0.97811
472.40,0.97855
472.60,0.97868
472.80,0.97862
473.00,0.97774
473.20,0.97832
473.40,0.97813
473.60,0.97887
473.80,0.97913
474.00,0.97954
474.20,0.97824
474.40,0.97821
474.60,0.97836
474.80,0.97856
475.00,0.97946
475.20,0.97984
475.40,0.98095
475.60,0.97995
475.80,0.97897
476.00,0.97732
476.20,0.97851
476.40,0.97710
476.60,0.97630
476.80,0.97707
477.00,0.97805
477.20,0.97613
477.40,0.97583
477.60,0.97678
477.80,0.97505
478.00,0.97294
478.20,0.97291
478.40,0.97099
478.60,0.96931
478.80,0.96912
479.00,0.96792
479.20,0.96780
479.40,0.96737
479.60,0.96684
479.80,0.96539
480.00,0.96583
480.20,0.96397
480.40,0.96359
480.60,0.96220
480.80,0.96226
481.00,0.96145
481.20,0.96124
481.40,0.96180
481.60,0.96048
481.80,0.95929
482.00,0.95783
482.20,0.95784
482.40,0.95568
482.60,0.95560
482.80,0.95456
483.00,0.95490
483.20,0.95338
483.40,0.95238
483.60,0.95112
483.80,0.95000
484.00,0.94923
484.20,0.94813
484.40,0.94700
484.60,0.94482
484.80,0.94450
485.00,0.94303
485.20,0.94104
485.40,0.94066
485.60,0.94066
485.80,0.93868
486.00,0.93740
486.20,0.93686
486.40,0.93518
486.60,0.93451
486.80,0.93372
487.00,0.93251
487.20,0.93204
487.40,0.93060
487.60,0.92884
487.80,0.92736
488.00,0.92628
488.20,0.92445
488.40,0.92438
488.60,0.92457
488.80,0.92395
489.00,0.92318
489.20,0.92125
489.40,0.91933
489.60,0.91809
489.80,0.91728
490.00,0.91651
490.20,0.91734
490.40,0.91634
490.60,0.91447
490.80,0.91350
491.00,0.91184
491.20,0.91068
491.40,0.90957
491.60,0.90865
491.80,0.90640
492.00,0.90537
492.20,0.90313
492.40,0.90183
492.60,0.90119
492.80,0.90180
493.00,0.90111
493.20,0.90030
493.40,0.90042
493.60,0.89891
493.80,0.89605
494.00,0.89425
494.20,0.89303
494.40,0.89137
494.60,0.89008
494.80,0.88896
495.00,0.88763
495.20,0.88707
495.40,0.88671
495.60,0.88509
495.80,0.88417
496.00,0.88365
496.20,0.88168
496.40,0.87861
496.60,0.87804
496.80,0.87707
497.00,0.87501
497.20,0.87472
497.40,0.87510
497.60,0.87403
497.80,0.87346
498.00,0.87219
498.20,0.86989
498.40,0.86751
498.60,0.86648
498.80,0.86525
499.00,0.86294
499.20,0.86208
499.40,0.86082
499.60,0.85942
499.80,0.85701
500.00,0.85605
500.20,0.85405
500.40,0.85308
500.60,0.85029
500.80,0.84835
501.00,0.84627
501.20,0.84468
501.40,0.84165
501.60,0.84066
501.80,0.83949
502.00,0.83844
502.20,0.83704
502.40,0.83572
502.60,0.83392
502.80,0.83174
503.00,0.82930
503.20,0.82706
503.40,0.82630
503.60,0.82412
503.80,0.82240
504.00,0.82048
504.20,0.81826
504.40,0.81588
504.60,0.81373
504.80,0.81273
505.00,0.81120
505.20,0.81003
505.40,0.80849
505.60,0.80700
505.80,0.80479
506.00,0.80232
506.20,0.79941
506.40,0.79732
506.60,0.79529
506.80,0.79357
507.00,0.79307
507.20,0.79181
507.40,0.78835
507.60,0.78611
507.80,0.78352
508.00,0.78054
508.20,0.77826
508.40,0.77753
508.60,0.77647
508.80,0.77394
509.00,0.77228
509.20,0.76964
509.40,0.76689
509.60,0.76395
509.80,0.76179
510.00,0.76040
510.20,0.75909
510.40,0.75712
510.60,0.75444
510.80,0.75277
511.00,0.74969
511.20,0.74759
511.40,0.74562
511.60,0.74384
511.80,0.74066
512.00,0.73918
512.20,0.73785
512.40,0.73612
512.60,0.73431
512.80,0.73414
513.00,0.73261
513.20,0.73044
513.40,0.72893
513.60,0.72669
513.80,0.72429
514.00,0.72245
514.20,0.71977
514.40,0.71617
514.60,0.71442
514.80,0.71214
515.00,0.70993
515.20,0.70864
515.40,0.70812
515.60,0.70698
515.80,0.70470
516.00,0.70255
516.20,0.70021
516.40,0.69813
516.60,0.69543
516.80,0.69376
517.00,0.69161
517.20,0.69022
517.40,0.68840
517.60,0.68664
517.80,0.68545
518.00,0.68444
518.20,0.68191
518.40,0.68082
518.60,0.68020
518.80,0.67791
519.00,0.67548
519.20,0.67375
519.40,0.67043
519.60,0.66703
519.80,0.66577
520.00,0.66404
520.20,0.66209
520.40,0.66090
520.60,0.66008
520.80,0.65731
521.00,0.65544
521.20,0.65525
521.40,0.65314
521.60,0.65150
521.80,0.65094
522.00,0.64989
522.20,0.64783
522.40,0.64664
522.60,0.64510
522.80,0.64309
523.00,0.64140
523.20,0.63847
523.40,0.63704
523.60,0.63556
523.80,0.63355
524.00,0.63144
524.20,0.63116
524.40,0.62940
524.60,0.62740
524.80,0.62684
525.00,0.62551
525.20,0.62363
525.40,0.62226
525.60,0.62088
525.80,0.61910
526.00,0.61793
526.20,0.61619
526.40,0.61375
526.60,0.61188
526.80,0.60986
527.00,0.60749
527.20,0.60592
527.40,0.60527
527.60,0.60441
527.80,0.60332
528.00,0.60258
528.20,0.60087
528.40,0.59916
528.60,0.59770
528.80,0.59620
529.00,0.59435
529.20,0.59302
529.40,0.59202
529.60,0.59052
529.80,0.58866
530.00,0.58633
530.20,0.58420
530.40,0.58235
530.60,0.58049
530.80,0.57885
531.00,0.57681
531.20,0.57537
531.40,0.57338
531.60,0.57133
531.80,0.56960
532.00,0.56877
532.20,0.56756
532.40,0.56567
532.60,0.56378
532.80,0.56326
533.00,0.56202
533.20,0.56097
533.40,0.55958
533.60,0.55911
533.80,0.55605
534.00,0.55451
534.20,0.55257
534.40,0.55174
534.60,0.54917
534.80,0.54879
535.00,0.54767
535.20,0.54572
535.40,0.54430
535.60,0.54334
535.80,0.54174
536.00,0.54003
536.20,0.53835
536.40,0.53615
536.60,0.53539
536.80,0.53342
537.00,0.53231
537.20,0.53119
537.40,0.53035
537.60,0.52866
537.80,0.52815
538.00,0.52590
538.20,0.52465
538.40,0.52307
538.60,0.52133
538.80,0.51925
539.00,0.51845
539.20,0.51720
539.40,0.51606
539.60,0.51525
539.80,0.51322
540.00,0.51133
540.20,0.50975
540.40,0.50915
540.60,0.50718
540.80,0.50649
541.00,0.50531
541.20,0.50398
541.40,0.50125
541.60,0.49956
541.80,0.49779
542.00,0.49676
542.20,0.49534
542.40,0.49469
542.60,0.49380
542.80,0.49280
543.00,0.49079
543.20,0.49004
543.40,0.48911
543.60,0.48703
543.80,0.48586
544.00,0.48536
544.20,0.48335
544.40,0.48142
544.60,0.48055
544.80,0.47949
545.00,0.47772
545.20,0.47720
545.40,0.47512
545.60,0.47354
545.80,0.47240
546.00,0.47121
546.20,0.46958
546.40,0.46868
546.60,0.46784
546.80,0.46581
547.00,0.46469
547.20,0.46400
547.40,0.46238
547.60,0.46156
547.80,0.46044
548.00,0.45921
548.20,0.45710
548.40,0.45718
548.60,0.45606
548.80,0.45480
549.00,0.45326
549.20,0.45273
549.40,0.45105
549.60,0.44945
549.80,0.44841
550.00,0.44743
550.20,0.44593
550.40,0.44424
550.60,0.44315
550.80,0.44238
551.00,0.44146
551.20,0.44085
551.40,0.44073
551.60,0.43977
551.80,0.43881
552.00,0.43873
552.20,0.43745
552.40,0.43638
552.60,0.43499
552.80,0.43392
553.00,0.43224
553.20,0.43110
553.40,0.43008
553.60,0.42947
553.80,0.42900
554.00,0.42768
554.20,0.42676
554.40,0.42571
554.60,0.42481
554.80,0.42390
555.00,0.42346
555.20,0.42288
555.40,0.42261
555.60,0.42182
555.80,0.42031
556.00,0.41958
556.20,0.41925
556.40,0.41791
556.60,0.41825
556.80,0.41749
557.00,0.41666
557.20,0.41582
557.40,0.41609
557.60,0.41466
557.80,0.41448
558.00,0.41441
558.20,0.41312
558.40,0.41193
558.60,0.41105
558.80,0.41083
559.00,0.41029
559.20,0.41087
559.40,0.41021
559.60,0.41013
559.80,0.40976
560.00,0.40920
560.20,0.40870
560.40,0.40807
560.60,0.40756
560.80,0.40679
561.00,0.40584
561.20,0.40542
561.40,0.40512
561.60,0.40454
561.80,0.40396
562.00,0.40374
562.20,0.40292
562.40,0.40251
562.60,0.40220
562.80,0.40150
563.00,0.40122
563.20,0.40119
563.40,0.40115
563.60,0.40090
563.80,0.40073
564.00,0.40045
564.20,0.39915
564.40,0.39941
564.60,0.39926
564.80,0.39925
565.00,0.39884
565.20,0.39892
565.40,0.39839
565.60,0.39816
565.80,0.39801
566.00,0.39809
566.20,0.39835
566.40,0.39772
566.60,0.39734
566.80,0.39704
567.00,0.39705
567.20,0.39672
567.40,0.39605
567.60,0.39583
567.80,0.39575
568.00,0.39570
568.20,0.39507
568.40,0.39562
568.60,0.39635
568.80,0.39680
569.00,0.39660
569.20,0.39657
569.40,0.39586
569.60,0.39437
569.80,0.39419
570.00,0.39362
570.20,0.39476
570.40,0.39503
570.60,0.39521
570.80,0.39467
571.00,0.39491
571.20,0.39441
571.40,0.39492
571.60,0.39553
571.80,0.39589
572.00,0.39557
572.20,0.39567
572.40,0.39588
572.60,0.39565
572.80,0.39498
573.00,0.39573
573.20,0.39503
573.40,0.39404
573.60,0.39339
573.80,0.39451
574.00,0.39448
574.20,0.39555
574.40,0.39593
574.60,0.39716
574.80,0.39697
575.00,0.39675
575.20,0.39686
575.40,0.39779
575.60,0.39758
575.80,0.39780
576.00,0.39816
576.20,0.39794
576.40,0.39809
576.60,0.39869
576.80,0.39915
577.00,0.39904
577.20,0.39968
577.40,0.39946
577.60,0.40048
577.80,0.40066
578.00,0.40183
578.20,0.40154
578.40,0.40188
578.60,0.40141
578.80,0.40174
579.00,0.40136
579.20,0.40210
579.40,0.40238
579.60,0.40253
579.80,0.40240
580.00,0.40325
580.20,0.40292
580.40,0.40435
580.60,0.40455
580.80,0.40543
581.00,0.40572
581.20,0.40685
581.40,0.40619
581.60,0.40650
581.80,0.40633
582.00,0.40657
582.20,0.40671
582.40,0.40741
582.60,0.40818
582.80,0.40862
583.00,0.40882
583.20,0.40936
583.40,0.40963
583.60,0.40973
583.80,0.41087
584.00,0.41169
584.20,0.41204
584.40,0.41248
584.60,0.41336
584.80,0.41322
585.00,0.41366
585.20,0.41449
585.40,0.41543
585.60,0.41654
585.80,0.41714
586.00,0.41776
586.20,0.41863
586.40,0.41922
586.60,0.41920
586.80,0.41976
587.00,0.42069
587.20,0.42063
587.40,0.42124
587.60,0.42229
587.80,0.42304
588.00,0.42338
588.20,0.42500
588.40,0.42530
588.60,0.42524
588.80,0.42633
589.00,0.42700
589.20,0.42717
589.40,0.42871
589.60,0.43002
589.80,0.43027
590.00,0.43112
590.20,0.43137
590.40,0.43168
590.60,0.43221
590.80,0.43306
591.00,0.43407
591.20,0.43533
591.40,0.43650
591.60,0.43745
591.80,0.43811
592.00,0.43886
592.20,0.43933
592.40,0.43999
592.60,0.44135
592.80,0.44262
593.00,0.44311
593.20,0.44400
593.40,0.44421
593.60,0.44469
593.80,0.44536
594.00,0.44601
594.20,0.44690
594.40,0.44769
594.60,0.44855
594.80,0.44906
595.00,0.45030
595.20,0.45157
595.40,0.45174
595.60,0.45258
595.80,0.45402
596.00,0.45525
596.20,0.45563
596.40,0.45748
596.60,0.45808
596.80,0.45845
597.00,0.45871
597.20,0.45964
597.40,0.46044
597.60,0.46103
597.80,0.46257
598.00,0.46362
598.20,0.46433
598.40,0.46562
598.60,0.46644
598.80,0.46691
599.00,0.46757
599.20,0.46858
599.40,0.46887
599.60,0.46991
599.80,0.47136
600.00,0.47234
600.20,0.47319
600.40,0.47412
600.60,0.47502
600.80,0.47597
601.00,0.47661
601.20,0.47729
601.40,0.47843
601.60,0.47955
601.80,0.47968
602.00,0.48115
602.20,0.48308
602.40,0.48416
602.60,0.48583
602.80,0.48725
603.00,0.48775
603.20,0.48784
603.40,0.48851
603.60,0.48879
603.80,0.48936
604.00,0.49126
604.20,0.49220
604.40,0.49323
604.60,0.49422
604.80,0.49528
605.00,0.49639
605.20,0.49790
605.40,0.49935
605.60,0.50029
605.80,0.50180
606.00,0.50198
606.20,0.50244
606.40,0.50328
606.60,0.50412
606.80,0.50468
607.00,0.50517
607.20,0.50619
607.40,0.50750
607.60,0.50984
607.80,0.51144
608.00,0.51347
608.20,0.51549
608.40,0.51708
608.60,0.51785
608.80,0.51888
609.00,0.52002
609.20,0.52120
609.40,0.52179
609.60,0.52320
609.80,0.52465
610.00,0.52636
610.20,0.52718
610.40,0.52827
610.60,0.52934
610.80,0.53119
611.00,0.53217
611.20,0.53328
611.40,0.53525
611.60,0.53687
611.80,0.53783
612.00,0.53887
612.20,0.54103
612.40,0.54275
612.60,0.54300
612.80,0.54398
613.00,0.54572
613.20,0.54717
613.40,0.54768
613.60,0.55018
613.80,0.55142
614.00,0.55356
614.20,0.55507
614.40,0.55748
614.60,0.55844
614.80,0.56068
615.00,0.56173
615.20,0.56361
615.40,0.56457
615.60,0.56600
615.80,0.56750
616.00,0.56964
616.20,0.57164
616.40,0.57295
616.60,0.57522
616.80,0.57703
617.00,0.57868
617.20,0.57983
617.40,0.58274
617.60,0.58446
617.80,0.58684
618.00,0.58890
618.20,0.59107
618.40,0.59368
618.60,0.59659
618.80,0.59836
619.00,0.59998
619.20,0.60290
619.40,0.60398
619.60,0.60584
619.80,0.60818
620.00,0.61032
620.20,0.61228
620.40,0.61474
620.60,0.61687
620.80,0.61928
621.00,0.62220
621.20,0.62395
621.40,0.62720
621.60,0.63052
621.80,0.63234
622.00,0.63527
622.20,0.63743
622.40,0.63978
622.60,0.64093
622.80,0.64487
623.00,0.64674
623.20,0.64991
623.40,0.65235
623.60,0.65504
623.80,0.65708
624.00,0.66032
624.20,0.66352
624.40,0.66674
624.60,0.67085
624.80,0.67356
625.00,0.67676
625.20,0.67937
625.40,0.68217
625.60,0.68571
625.80,0.68858
626.00,0.69268
626.20,0.69675
626.40,0.70187
626.60,0.70567
626.80,0.71040
627.00,0.71306
627.20,0.71651
627.40,0.71773
627.60,0.72083
627.80,0.72411
628.00,0.72808
628.20,0.73138
628.40,0.73578
628.60,0.73922
628.80,0.74213
629.00,0.74534
629.20,0.74943
629.40,0.75399
629.60,0.75789
629.80,0.76243
630.00,0.76756
630.20,0.77202
630.40,0.77534
630.60,0.77946
630.80,0.78501
631.00,0.78866
631.20,0.79270
631.40,0.79853
631.60,0.80470
631.80,0.80920
632.00,0.81385
632.20,0.81856
632.40,0.82305
632.60,0.82633
632.80,0.83088
633.00,0.83545
633.20,0.84065
633.40,0.84542
633.60,0.85125
633.80,0.85682
634.00,0.86322
634.20,0.86976
634.40,0.87619
634.60,0.88202
634.80,0.88782
635.00,0.89440
635.20,0.89940
635.40,0.90508
635.60,0.91088
635.80,0.91684
636.00,0.92303
636.20,0.93003
636.40,0.93576
636.60,0.94217
636.80,0.94829
637.00,0.95225
637.20,0.95778
637.40,0.96548
637.60,0.97397
637.80,0.98027
638.00,0.98862
638.20,0.99569
638.40,1.00178
638.60,1.00828
638.80,1.01571
639.00,1.02305
639.20,1.03004
639.40,1.03856
639.60,1.04467
639.80,1.05278
640.00,1.06052
640.20,1.07056
640.40,1.07682
640.60,1.08540
640.80,1.09313
641.00,1.10168
641.20,1.10937
641.40,1.11922
641.60,1.12860
641.80,1.13620
642.00,1.14392
642.20,1.15179
642.40,1.16018
642.60,1.16766
642.80,1.17754
643.00,1.18718
643.20,1.19598
643.40,1.20345
643.60,1.21290
643.80,1.22170
644.00,1.23116
644.20,1.24034
644.40,1.24983
644.60,1.25838
644.80,1.26701
645.00,1.27618
645.20,1.28752
645.40,1.29792
645.60,1.30816
645.80,1.31911
646.00,1.33016
646.20,1.33921
646.40,1.34847
646.60,1.35831
646.80,1.36866
647.00,1.37650
647.20,1.38591
647.40,1.39736
647.60,1.40793
647.80,1.41945
648.00,1.43228
648.20,1.44304
648.40,1.45385
648.60,1.46572
648.80,1.47591
649.00,1.48693
649.20,1.49807
649.40,1.51030
649.60,1.52218
649.80,1.53389
650.00,1.54280
650.20,1.55451
650.40,1.56453
650.60,1.57550
650.80,1.58739
651.00,1.60241
651.20,1.61357
651.40,1.62561
651.60,1.63795
651.80,1.65022
652.00,1.66097
652.20,1.67335
652.40,1.68554
652.60,1.69657
652.80,1.70757
653.00,1.72190
653.20,1.73586
653.40,1.74970
653.60,1.76292
653.80,1.77699
654.00,1.78977
654.20,1.80369
654.40,1.81707
654.60,1.83206
654.80,1.84724
655.00,1.85994
655.20,1.87403
655.40,1.88723
655.60,1.90151
655.80,1.91434
656.00,1.92862
656.20,1.94316
656.40,1.95920
656.60,1.97338
656.80,1.99011
657.00,2.00827
657.20,2.02379
657.40,2.03881
657.60,2.05709
657.80,2.07403
658.00,2.08938
658.20,2.10766
658.40,2.12938
658.60,2.14465
658.80,2.16129
659.00,2.17965
659.20,2.19935
659.40,2.21623
659.60,2.23790
659.80,2.25621
660.00,2.27521
660.20,2.29241
660.40,2.30907
660.60,2.32706
660.80,2.34703
661.00,2.36596
661.20,2.38525
661.40,2.40689
661.60,2.42606
661.80,2.44885
662.00,2.47136
662.20,2.49378
662.40,2.51823
662.60,2.54131
662.80,2.56223
663.00,2.58481
663.20,2.61010
663.40,2.63129
663.60,2.65831
663.80,2.68377
664.00,2.70709
664.20,2.73016
664.40,2.75696
664.60,2.78083
664.80,2.80649
665.00,2.83180
665.20,2.85711
665.40,2.88284
665.60,2.91149
665.80,2.93940
666.00,2.96763
666.20,2.99459
666.40,3.02308
666.60,3.05075
666.80,3.07838
667.00,3.10681
667.20,3.14002
667.40,3.16667
667.60,3.19499
667.80,3.22494
668.00,3.25641
668.20,3.28422
668.40,3.32047
668.60,3.35357
668.80,3.38774
669.00,3.42158
669.20,3.45618
669.40,3.48576
669.60,3.51989
669.80,3.55295
670.00,3.58847
670.20,3.62310
670.40,3.66182
670.60,3.69262
670.80,3.72718
671.00,3.76210
671.20,3.80038
671.40,3.83668
671.60,3.87931
671.80,3.91833
672.00,3.96124
672.20,3.99599
672.40,4.03321
672.60,4.06904
672.80,4.11119
673.00,4.14858
673.20,4.19190
673.40,4.23319
673.60,4.28285
673.80,4.32316
674.00,4.36734
674.20,4.41126
674.40,4.45242
674.60,4.49344
674.80,4.54143
675.00,4.58943
675.20,4.63596
675.40,4.68786
675.60,4.73607
675.80,4.78410
676.00,4.82860
676.20,4.88181
676.40,4.93853
676.60,4.99063
676.80,5.04569
677.00,5.09999
677.20,5.15293
677.40,5.19956
677.60,5.25550
677.80,5.30916
678.00,5.36330
678.20,5.41752
678.40,5.47537
678.60,5.52639
678.80,5.58371
679.00,5.64285
679.20,5.70015
679.40,5.75793
679.60,5.82489
679.80,5.88319
680.00,5.94260
680.20,6.00945
680.40,6.07465
680.60,6.13196
680.80,6.19434
681.00,6.25717
681.20,6.31681
681.40,6.38679
681.60,6.45719
681.80,6.52827
682.00,6.59748
682.20,6.66409
682.40,6.72526
682.60,6.78137
682.80,6.84733
683.00,6.91562
683.20,6.98988
683.40,7.06332
683.60,7.14210
683.80,7.21131
684.00,7.28551
684.20,7.35128
684.40,7.42247
684.60,7.49917
684.80,7.57411
685.00,7.64382
685.20,7.72139
685.40,7.79378
685.60,7.86896
685.80,7.94177
686.00,8.01999
686.20,8.09465
686.40,8.16503
686.60,8.23059
686.80,8.30508
687.00,8.37422
687.20,8.45233
687.40,8.53465
687.60,8.60887
687.80,8.68850
688.00,8.77312
688.20,8.85028
688.40,8.93194
688.60,9.01635
688.80,9.09237
689.00,9.16525
689.20,9.24289
689.40,9.31956
689.60,9.39588
689.80,9.48085
690.00,9.56330
690.20,9.64182
690.40,9.72278
690.60,9.79998
690.80,9.87108
691.00,9.94621
691.20,10.02182
691.40,10.09103
691.60,10.17888
691.80,10.25900
692.00,10.34212
692.20,10.42211
692.40,10.51358
692.60,10.59162
692.80,10.68442
693.00,10.76551
693.20,10.84498
693.40,10.92239
693.60,11.00383
693.80,11.06824
694.00,11.14367
694.20,11.22081
694.40,11.29680
694.60,11.36706
694.80,11.45017
695.00,11.53178
695.20,11.61671
695.40,11.69465
695.60,11.78063
695.80,11.85066
696.00,11.92853
696.20,11.99432
696.40,12.05823
696.60,12.12969
696.80,12.21467
697.00,12.28335
697.20,12.36400
697.40,12.44558
697.60,12.51907
697.80,12.59548
698.00,12.67434
698.20,12.75447
698.40,12.83415
698.60,12.91107
698.80,12.97992
699.00,13.05941
699.20,13.13133
699.40,13.20111
699.60,13.27627
699.80,13.35044
700.00,13.41509
700.20,13.48548
700.40,13.56502
700.60,13.63960
700.80,13.71808
701.00,13.79614
701.20,13.86162
701.40,13.92187
701.60,13.98963
701.80,14.05338
702.00,14.12385
702.20,14.20187
702.40,14.27708
702.60,14.34823
702.80,14.41538
703.00,14.49656
703.20,14.57324
703.40,14.64359
703.60,14.71697
703.80,14.79513
704.00,14.86079
704.20,14.93087
704.40,15.00645
704.60,15.06117
704.80,15.13060
705.00,15.20400
705.20,15.26703
705.40,15.32857
705.60,15.40276
705.80,15.47003
706.00,15.52490
706.20,15.59136
706.40,15.64723
706.60,15.72375
706.80,15.78420
707.00,15.84870
707.20,15.90770
707.40,15.98476
707.60,16.04146
707.80,16.10523
708.00,16.16313
708.20,16.22151
708.40,16.27470
708.60,16.32653
708.80,16.37720
709.00,16.43836
709.20,16.50663
709.40,16.55811
709.60,16.60928
709.80,16.67068
710.00,16.73045
710.20,16.78077
710.40,16.85496
710.60,16.91878
710.80,16.96960
711.00,17.02221
711.20,17.07654
711.40,17.12091
711.60,17.17200
711.80,17.22721
712.00,17.27533
712.20,17.32370
712.40,17.37187
712.60,17.41685
712.80,17.48252
713.00,17.53306
713.20,17.59220
713.40,17.65227
713.60,17.71791
713.80,17.74812
714.00,17.78878
714.20,17.84603
714.40,17.88430
714.60,17.91954
714.80,17.96404
715.00,18.01109
715.20,18.03071
715.40,18.06930
715.60,18.10201
715.80,18.14820
716.00,18.19278
716.20,18.25411
716.40,18.31377
716.60,18.37254
716.80,18.42036
717.00,18.47619
717.20,18.51730
717.40,18.54549
717.60,18.58383
717.80,18.62416
718.00,18.66018
718.20,18.68078
718.40,18.71574
718.60,18.75550
718.80,18.79103
719.00,18.82100
719.20,18.87700
719.40,18.91678
719.60,18.95044
719.80,18.98642
720.00,19.03692
720.20,19.07489
720.40,19.11871
720.60,19.16141
720.80,19.19999
721.00,19.22910
721.20,19.27111
721.40,19.30364
721.60,19.34785
721.80,19.37635
722.00,19.40754
722.20,19.41255
722.40,19.45172
722.60,19.48536
722.80,19.52854
723.00,19.56654
723.20,19.60721
723.40,19.62929
723.60,19.65719
723.80,19.69654
724.00,19.71952
724.20,19.77094
724.40,19.80652
724.60,19.83436
724.80,19.85822
725.00,19.90293
725.20,19.91854
725.40,19.95119
725.60,19.98146
725.80,20.01353
726.00,20.02645
726.20,20.06233
726.40,20.12665
726.60,20.14559
726.80,20.18297
727.00,20.21603
727.20,20.24356
727.40,20.24841
727.60,20.28736
727.80,20.29368
728.00,20.31052
728.20,20.33390
728.40,20.34277
728.60,20.37960
728.80,20.40884
729.00,20.45747
729.20,20.48232
729.40,20.52236
729.60,20.53632
729.80,20.57097
730.00,20.59864
730.20,20.62252
730.40,20.63290
730.60,20.66065
730.80,20.67597
731.00,20.69471
731.20,20.72671
731.40,20.76729
731.60,20.78087
731.80,20.82580
732.00,20.83898
732.20,20.84055
732.40,20.85440
732.60,20.88179
732.80,20.88845
733.00,20.90946
733.20,20.94237
733.40,20.95509
733.60,20.95803
733.80,20.97125
734.00,20.98846
734.20,21.00299
734.40,21.02741
734.60,21.05440
734.80,21.07226
735.00,21.08859
735.20,21.10856
735.40,21.11678
735.60,21.13468
735.80,21.15400
736.00,21.16482
736.20,21.17737
736.40,21.21103
736.60,21.22183
736.80,21.24340
737.00,21.27013
737.20,21.29763
737.40,21.28635
737.60,21.32133
737.80,21.34027
738.00,21.36609
738.20,21.39248
738.40,21.42205
738.60,21.43410
738.80,21.45147
739.00,21.46952
739.20,21.47495
739.40,21.50835
739.60,21.52293
739.80,21.53967
740.00,21.52723
740.20,21.54822
740.40,21.54749
740.60,21.55194
740.80,21.54841
741.00,21.57670
741.20,21.57612
741.40,21.60561
741.60,21.63306
741.80,21.66569
742.00,21.67919
742.20,21.71420
742.40,21.72936
742.60,21.73521
742.80,21.74499
743.00,21.75457
743.20,21.76260
743.40,21.78984
743.60,21.81119
743.80,21.82121
744.00,21.84355
744.20,21.86403
744.40,21.84570
744.60,21.86160
744.80,21.87961
745.00,21.89015
745.20,21.90459
745.40,21.93336
745.60,21.93930
745.80,21.95367
746.00,21.98506
746.20,21.97889
746.40,21.98326
746.60,22.01385
746.80,22.01717
747.00,22.02515
747.20,22.05194
747.40,22.06006
747.60,22.07140
747.80,22.08894
748.00,22.09136
748.20,22.10927
748.40,22.12212
748.60,22.14280
748.80,22.17204
749.00,22.20278
749.20,22.19406
749.40,22.22559
749.60,22.22507
749.80,22.22815
750.00,22.22088
750.20,22.25549
750.40,22.27447
750.60,22.27567
750.80,22.28805
751.00,22.32238
751.20,22.34278
751.40,22.34395
751.60,22.36989
751.80,22.37543
752.00,22.37979
752.20,22.37788
752.40,22.39007
752.60,22.40963
752.80,22.44178
753.00,22.44366
753.20,22.44792
753.40,22.47611
753.60,22.48482
753.80,22.48492
754.00,22.49763
754.20,22.52259
754.40,22.51235
754.60,22.52227
754.80,22.54118
755.00,22.58196
755.20,22.59418
755.40,22.62929
755.60,22.63915
755.80,22.65056
756.00,22.64346
756.20,22.65163
756.40,22.65010
756.60,22.66502
756.80,22.68936
757.00,22.69675
757.20,22.70951
757.40,22.72084
757.60,22.71223
757.80,22.70245
758.00,22.72315
758.20,22.73605
758.40,22.74520
758.60,22.77476
758.80,22.79068
759.00,22.79508
759.20,22.82184
759.40,22.83449
759.60,22.84398
759.80,22.87004
760.00,22.89617
760.20,22.89644
760.40,22.90789
760.60,22.92439
760.80,22.92928
761.00,22.93860
761.20,22.94066
761.40,22.95447
761.60,22.97064
761.80,23.00215
762.00,23.00722
762.20,23.04171
762.40,23.05046
762.60,23.05816
762.80,23.04065
763.00,23.06067
763.20,23.05744
763.40,23.06914
763.60,23.07883
763.80,23.08575
764.00,23.08631
764.20,23.10523
764.40,23.12914
764.60,23.14499
764.80,23.15550
765.00,23.16499
765.20,23.14630
765.40,23.16225
765.60,23.16660
765.80,23.17967
766.00,23.18226
766.20,23.21093
766.40,23.21186
766.60,23.23907
766.80,23.25443
767.00,23.29333
767.20,23.32372
767.40,23.32826
767.60,23.31962
767.80,23.35136
768.00,23.38013
768.20,23.41027
768.40,23.44689
768.60,23.46590
768.80,23.47009
769.00,23.45261
769.20,23.43405
769.40,23.41727
769.60,23.43458
769.80,23.45347
770.00,23.45725
770.20,23.44497
770.40,23.47101
770.60,23.44928
770.80,23.45925
771.00,23.50196
771.20,23.53866
771.40,23.53952
771.60,23.59676
771.80,23.59516
772.00,23.56746
772.20,23.56432
772.40,23.58287
772.60,23.59634
772.80,23.59964
773.00,23.62829
773.20,23.65973
773.40,23.67264
773.60,23.65483
773.80,23.69696
774.00,23.69917
774.20,23.70342
774.40,23.72273
774.60,23.74730
774.80,23.71030
775.00,23.73829
775.20,23.73926
775.40,23.69865
775.60,23.71194
775.80,23.75787
776.00,23.77277
776.20,23.79223
776.40,23.84663
776.60,23.83866
776.80,23.85826
777.00,23.84653
777.20,23.83240
777.40,23.85026
777.60,23.86176
777.80,23.86771
778.00,23.88492
778.20,23.92450
778.40,23.91496
778.60,23.93886
778.80,23.92312
779.00,23.94194
779.20,23.93779
779.40,23.92792
779.60,23.92584
779.80,23.96041
780.00,23.98079
780.20,23.97155
780.40,24.01569
780.60,24.01608
780.80,24.01979
781.00,23.98153
781.20,24.03361
781.40,24.01348
781.60,24.01197
781.80,23.96681
782.00,23.99534
782.20,23.97842
782.40,24.02002
782.60,24.05994
782.80,24.12634
783.00,24.12730
783.20,24.14083
783.40,24.13494
783.60,24.12819
783.80,24.12975
784.00,24.13588
784.20,24.14573
784.40,24.17279
784.60,24.17393
784.80,24.18763
785.00,24.21463
785.20,24.22156
785.40,24.20345
785.60,24.22889
785.80,24.22105
786.00,24.22784
786.20,24.22097
786.40,24.23940
786.60,24.25115
786.80,24.27522
787.00,24.26533
787.20,24.27520
787.40,24.26867
787.60,24.29324
787.80,24.28399
788.00,24.31214
788.20,24.33812
788.40,24.36513
788.60,24.36220
788.80,24.36689
789.00,24.37135
789.20,24.41300
789.40,24.42170
789.60,24.42170
789.80,24.43957
790.00,24.44410
790.20,24.43150
790.40,24.43667
790.60,24.46188
790.80,24.46537
791.00,24.48573
791.20,24.46231
791.40,24.46647
791.60,24.45205
791.80,24.48047
792.00,24.49448
792.20,24.51711
792.40,24.53711
792.60,24.55767
792.80,24.54317
793.00,24.52336
793.20,24.52694
793.40,24.53402
793.60,24.53780
793.80,24.53384
794.00,24.57428
794.20,24.59113
794.40,24.58985
794.60,24.58246
794.80,24.60628
795.00,24.60365
795.20,24.58676
795.40,24.57197
795.60,24.57557
795.80,24.55835
796.00,24.55104
796.20,24.56793
796.40,24.57914
796.60,24.57708
796.80,24.64106
797.00,24.67847
797.20,24.69577
797.40,24.74884
797.60,24.77742
797.80,24.74910
798.00,24.69574
798.20,24.70424
798.40,24.68626
798.60,24.68155
798.80,24.67258
799.00,24.74173
799.20,24.77613
799.40,24.77718
799.60,24.80375
799.80,24.83386
800.00,24.81651
