"Rt3 - RawData"
"Wavelength nm.","T%"
200.00,0.24486
200.20,0.26142
200.40,0.25468
200.60,0.25843
200.80,0.22696
201.00,0.24298
201.20,0.21042
201.40,0.20586
201.60,0.21260
201.80,0.20264
202.00,0.21039
202.20,0.20518
202.40,0.21172
202.60,0.19796
202.80,0.21220
203.00,0.21553
203.20,0.19871
203.40,0.19607
203.60,0.19451
203.80,0.22193
204.00,0.22144
204.20,0.26171
204.40,0.24818
204.60,0.24796
204.80,0.21987
205.00,0.20884
205.20,0.19732
205.40,0.20969
205.60,0.19041
205.80,0.19108
206.00,0.18249
206.20,0.17923
206.40,0.18083
206.60,0.18383
206.80,0.19029
207.00,0.19563
207.20,0.19221
207.40,0.18232
207.60,0.18975
207.80,0.18365
208.00,0.17516
208.20,0.18094
208.40,0.16993
208.60,0.17021
208.80,0.16180
209.00,0.16109
209.20,0.14745
209.40,0.16075
209.60,0.15995
209.80,0.16354
210.00,0.16088
210.20,0.16366
210.40,0.14966
210.60,0.15342
210.80,0.16322
211.00,0.16632
211.20,0.17329
211.40,0.19305
211.60,0.17991
211.80,0.16641
212.00,0.16460
212.20,0.15301
212.40,0.14445
212.60,0.14595
212.80,0.14879
213.00,0.14812
213.20,0.15675
213.40,0.15591
213.60,0.15737
213.80,0.16142
214.00,0.16746
214.20,0.15918
214.40,0.15965
214.60,0.15743
214.80,0.16550
215.00,0.16137
215.20,0.17097
215.40,0.16394
215.60,0.17047
215.80,0.15986
216.00,0.16373
216.20,0.15255
216.40,0.15941
216.60,0.14759
216.80,0.15150
217.00,0.15175
217.20,0.16328
217.40,0.16292
217.60,0.17372
217.80,0.17389
218.00,0.16542
218.20,0.16039
218.40,0.15639
218.60,0.15328
218.80,0.15249
219.00,0.15802
219.20,0.15991
219.40,0.16443
219.60,0.16188
219.80,0.15717
220.00,0.15458
220.20,0.15705
220.40,0.15459
220.60,0.15793
220.80,0.16470
221.00,0.17112
221.20,0.16701
221.40,0.17335
221.60,0.17627
221.80,0.16990
222.00,0.16600
222.20,0.16908
222.40,0.16054
222.60,0.16066
222.80,0.16195
223.00,0.16510
223.20,0.16401
223.40,0.16526
223.60,0.16073
223.80,0.16417
224.00,0.16300
224.20,0.16498
224.40,0.16920
224.60,0.17075
224.80,0.17071
225.00,0.16591
225.20,0.16763
225.40,0.16732
225.60,0.16642
225.80,0.17028
226.00,0.17643
226.20,0.17579
226.40,0.17441
226.60,0.17747
226.80,0.17462
227.00,0.17234
227.20,0.16830
227.40,0.16857
227.60,0.16563
227.80,0.16379
228.00,0.15973
228.20,0.16232
228.40,0.16598
228.60,0.16908
228.80,0.17030
229.00,0.17255
229.20,0.16865
229.40,0.16245
229.60,0.16159
229.80,0.16227
230.00,0.16928
230.20,0.17716
230.40,0.18072
230.60,0.18306
230.80,0.18476
231.00,0.17927
231.20,0.17766
231.40,0.18133
231.60,0.18231
231.80,0.18266
232.00,0.18288
232.20,0.18082
232.40,0.17652
232.60,0.16948
232.80,0.16305
233.00,0.16377
233.20,0.16073
233.40,0.15601
233.60,0.15718
233.80,0.16279
234.00,0.16414
234.20,0.16167
234.40,0.16686
234.60,0.16678
234.80,0.16578
235.00,0.15984
235.20,0.15836
235.40,0.15494
235.60,0.15625
235.80,0.15261
236.00,0.15349
236.20,0.15734
236.40,0.15807
236.60,0.15590
236.80,0.15745
237.00,0.15930
237.20,0.15732
237.40,0.15861
237.60,0.15726
237.80,0.15119
238.00,0.14485
238.20,0.14477
238.40,0.13967
238.60,0.13863
238.80,0.13996
239.00,0.14329
239.20,0.14134
239.40,0.14256
239.60,0.14532
239.80,0.14362
240.00,0.13808
240.20,0.13680
240.40,0.13563
240.60,0.12872
240.80,0.12571
241.00,0.12856
241.20,0.12576
241.40,0.12284
241.60,0.12167
241.80,0.12370
242.00,0.12132
242.20,0.12098
242.40,0.11996
242.60,0.12108
242.80,0.11697
243.00,0.11497
243.20,0.11513
243.40,0.11322
243.60,0.11074
243.80,0.11179
244.00,0.11060
244.20,0.11064
244.40,0.11026
244.60,0.11062
244.80,0.10889
245.00,0.10916
245.20,0.10550
245.40,0.10523
245.60,0.10394
245.80,0.10300
246.00,0.10277
246.20,0.10286
246.40,0.10079
246.60,0.10148
246.80,0.10053
247.00,0.09982
247.20,0.09730
247.40,0.09611
247.60,0.09372
247.80,0.09374
248.00,0.09156
248.20,0.09223
248.40,0.09244
248.60,0.09227
248.80,0.09410
249.00,0.09404
249.20,0.09398
249.40,0.09283
249.60,0.09503
249.80,0.09246
250.00,0.09397
250.20,0.09395
250.40,0.09491
250.60,0.09318
250.80,0.09361
251.00,0.09262
251.20,0.09183
251.40,0.08980
251.60,0.08804
251.80,0.08833
252.00,0.08900
252.20,0.08773
252.40,0.09062
252.60,0.09296
252.80,0.09124
253.00,0.09002
253.20,0.09262
253.40,0.09133
253.60,0.09057
253.80,0.08992
254.00,0.08819
254.20,0.08613
254.40,0.08442
254.60,0.08462
254.80,0.08534
255.00,0.08684
255.20,0.08695
255.40,0.08887
255.60,0.08714
255.80,0.08695
256.00,0.08753
256.20,0.08873
256.40,0.08774
256.60,0.08791
256.80,0.08806
257.00,0.08779
257.20,0.08965
257.40,0.09201
257.60,0.09557
257.80,0.09500
258.00,0.09353
258.20,0.09069
258.40,0.09012
258.60,0.08762
258.80,0.09120
259.00,0.09212
259.20,0.09275
259.40,0.09216
259.60,0.09063
259.80,0.08867
260.00,0.09029
260.20,0.08928
260.40,0.08987
260.60,0.09133
260.80,0.09035
261.00,0.08896
261.20,0.08896
261.40,0.08918
261.60,0.09035
261.80,0.08984
262.00,0.09045
262.20,0.09220
262.40,0.09370
262.60,0.09336
262.80,0.09410
263.00,0.09337
263.20,0.09441
263.40,0.09154
263.60,0.09214
263.80,0.09196
264.00,0.09228
264.20,0.09175
264.40,0.09416
264.60,0.09368
264.80,0.09503
265.00,0.09634
265.20,0.09805
265.40,0.09943
265.60,0.10078
265.80,0.10438
266.00,0.10401
266.20,0.10102
266.40,0.09949
266.60,0.09898
266.80,0.09700
267.00,0.09723
267.20,0.09793
267.40,0.09691
267.60,0.09726
267.80,0.09891
268.00,0.10094
268.20,0.10316
268.40,0.10468
268.60,0.10239
268.80,0.10060
269.00,0.09898
269.20,0.09598
269.40,0.09747
269.60,0.09904
269.80,0.09729
270.00,0.09743
270.20,0.09646
270.40,0.09354
270.60,0.09226
270.80,0.09335
271.00,0.09113
271.20,0.09200
271.40,0.09101
271.60,0.08998
271.80,0.08852
272.00,0.08923
272.20,0.08826
272.40,0.08842
272.60,0.08959
272.80,0.08783
273.00,0.08675
273.20,0.08863
273.40,0.08796
273.60,0.08650
273.80,0.08843
274.00,0.08945
274.20,0.08982
274.40,0.09015
274.60,0.09117
274.80,0.09209
275.00,0.09063
275.20,0.09140
275.40,0.09280
275.60,0.09572
275.80,0.09484
276.00,0.09658
276.20,0.09476
276.40,0.09399
276.60,0.09381
276.80,0.09433
277.00,0.09327
277.20,0.09456
277.40,0.09221
277.60,0.09080
277.80,0.09120
278.00,0.09277
278.20,0.09217
278.40,0.09311
278.60,0.09242
278.80,0.09228
279.00,0.09280
279.20,0.09295
279.40,0.09826
279.60,0.09975
279.80,0.10071
280.00,0.09982
280.20,0.10032
280.40,0.09801
280.60,0.09944
280.80,0.09925
281.00,0.09948
281.20,0.09865
281.40,0.09716
281.60,0.09628
281.80,0.09399
282.00,0.09259
282.20,0.09239
282.40,0.09291
282.60,0.09341
282.80,0.09504
283.00,0.09575
283.20,0.09696
283.40,0.09503
283.60,0.09376
283.80,0.09433
284.00,0.09534
284.20,0.09496
284.40,0.09914
284.60,0.09971
284.80,0.09978
285.00,0.09896
285.20,0.10157
285.40,0.10004
285.60,0.09737
285.80,0.09708
286.00,0.09782
286.20,0.09624
286.40,0.09515
286.60,0.09525
286.80,0.09368
287.00,0.09358
287.20,0.09134
287.40,0.09265
287.60,0.09305
287.80,0.09305
288.00,0.09402
288.20,0.09347
288.40,0.09093
288.60,0.09111
288.80,0.08921
289.00,0.08694
289.20,0.08758
289.40,0.08868
289.60,0.08567
289.80,0.08907
290.00,0.08712
290.20,0.08640
290.40,0.08338
290.60,0.08332
290.80,0.07788
291.00,0.07823
291.20,0.07779
291.40,0.07948
291.60,0.07968
291.80,0.08100
292.00,0.08122
292.20,0.07967
292.40,0.07977
292.60,0.08140
292.80,0.08154
293.00,0.07939
293.20,0.07948
293.40,0.07751
293.60,0.07499
293.80,0.07314
294.00,0.07377
294.20,0.07281
294.40,0.07293
294.60,0.07195
294.80,0.07195
295.00,0.07232
295.20,0.07158
295.40,0.07120
295.60,0.07296
295.80,0.07186
296.00,0.06940
296.20,0.06877
296.40,0.06843
296.60,0.06851
296.80,0.06975
297.00,0.07168
297.20,0.07140
297.40,0.07227
297.60,0.07223
297.80,0.07212
298.00,0.07133
298.20,0.07419
298.40,0.07328
298.60,0.07314
298.80,0.07293
299.00,0.07416
299.20,0.07173
299.40,0.07168
299.60,0.07197
299.80,0.07391
300.00,0.07420
300.20,0.07514
300.40,0.07482
300.60,0.07632
300.80,0.07487
301.00,0.07401
301.20,0.07511
301.40,0.07599
301.60,0.07359
301.80,0.07498
302.00,0.07572
302.20,0.07548
302.40,0.07608
302.60,0.07689
302.80,0.07617
303.00,0.07655
303.20,0.07737
303.40,0.07778
303.60,0.07866
303.80,0.07897
304.00,0.07949
304.20,0.07921
304.40,0.07942
304.60,0.07944
304.80,0.07982
305.00,0.07914
305.20,0.08098
305.40,0.08107
305.60,0.08185
305.80,0.08201
306.00,0.08217
306.20,0.07961
306.40,0.08076
306.60,0.07900
306.80,0.08162
307.00,0.08259
307.20,0.08512
307.40,0.08485
307.60,0.08607
307.80,0.08368
308.00,0.08341
308.20,0.08373
308.40,0.08506
308.60,0.08595
308.80,0.08642
309.00,0.08844
309.20,0.08882
309.40,0.08841
309.60,0.08924
309.80,0.09132
310.00,0.09048
310.20,0.09064
310.40,0.09182
310.60,0.09363
310.80,0.09601
311.00,0.09782
311.20,0.09971
311.40,0.09975
311.60,0.10108
311.80,0.10001
312.00,0.09935
312.20,0.10059
312.40,0.10182
312.60,0.10074
312.80,0.10135
313.00,0.10209
313.20,0.10316
313.40,0.10293
313.60,0.10599
313.80,0.10615
314.00,0.10806
314.20,0.10756
314.40,0.11104
314.60,0.11038
314.80,0.11544
315.00,0.11770
315.20,0.11955
315.40,0.11762
315.60,0.11936
315.80,0.11954
316.00,0.11961
316.20,0.12031
316.40,0.12383
316.60,0.12575
316.80,0.12655
317.00,0.13089
317.20,0.13345
317.40,0.13814
317.60,0.14002
317.80,0.14349
318.00,0.14398
318.20,0.14434
318.40,0.14097
318.60,0.14066
318.80,0.13894
319.00,0.14120
319.20,0.14384
319.40,0.14828
319.60,0.15306
319.80,0.15530
320.00,0.15525
320.20,0.15916
320.40,0.16055
320.60,0.15975
320.80,0.16214
321.00,0.16528
321.20,0.16633
321.40,0.16915
321.60,0.17223
321.80,0.17620
322.00,0.17978
322.20,0.18443
322.40,0.18293
322.60,0.18791
322.80,0.18820
323.00,0.19028
323.20,0.18746
323.40,0.19436
323.60,0.19720
323.80,0.20027
324.00,0.20038
324.20,0.20891
324.40,0.21078
324.60,0.21283
324.80,0.21695
325.00,0.22519
325.20,0.22596
325.40,0.23111
325.60,0.23419
325.80,0.23831
326.00,0.23704
326.20,0.24137
326.40,0.24305
326.60,0.24724
326.80,0.25140
327.00,0.25777
327.20,0.26150
327.40,0.26491
327.60,0.27163
327.80,0.27947
328.00,0.28212
328.20,0.28669
328.40,0.29363
328.60,0.29266
328.80,0.29054
329.00,0.29446
329.20,0.29899
329.40,0.29964
329.60,0.31051
329.80,0.31856
330.00,0.32274
330.20,0.32725
330.40,0.33575
330.60,0.33494
330.80,0.33913
331.00,0.34462
331.20,0.34876
331.40,0.35479
331.60,0.36001
331.80,0.36571
332.00,0.37258
332.20,0.38187
332.40,0.38440
332.60,0.38880
332.80,0.39357
333.00,0.40283
333.20,0.40708
333.40,0.41376
333.60,0.42321
333.80,0.43448
334.00,0.43923
334.20,0.44251
334.40,0.44807
334.60,0.45246
334.80,0.45312
335.00,0.45518
335.20,0.45921
335.40,0.47074
335.60,0.47921
335.80,0.48671
336.00,0.49820
336.20,0.50815
336.40,0.51289
336.60,0.51599
336.80,0.52432
337.00,0.52889
337.20,0.54180
337.40,0.55028
337.60,0.56126
337.80,0.56709
338.00,0.57608
338.20,0.57821
338.40,0.58683
338.60,0.59572
338.80,0.60315
339.00,0.60732
339.20,0.61430
339.40,0.61852
339.60,0.62603
339.80,0.63347
340.00,0.64666
340.20,0.65222
340.40,0.65930
340.60,0.66184
340.80,0.66652
341.00,0.67383
341.20,0.68067
341.40,0.68422
341.60,0.69246
341.80,0.70237
342.00,0.70292
342.20,0.70891
342.40,0.72024
342.60,0.72903
342.80,0.73218
343.00,0.74259
343.20,0.74947
343.40,0.75357
343.60,0.75657
343.80,0.76001
344.00,0.76099
344.20,0.76536
344.40,0.77071
344.60,0.77345
344.80,0.78221
345.00,0.78799
345.20,0.79768
345.40,0.79716
345.60,0.80132
345.80,0.80403
346.00,0.80737
346.20,0.80423
346.40,0.81200
346.60,0.81421
346.80,0.81725
347.00,0.81949
347.20,0.82648
347.40,0.82819
347.60,0.83646
347.80,0.83916
348.00,0.84497
348.20,0.84892
348.40,0.85309
348.60,0.85376
348.80,0.85668
349.00,0.86213
349.20,0.86440
349.40,0.86798
349.60,0.86931
349.80,0.87296
350.00,0.87330
350.20,0.87427
350.40,0.87348
350.60,0.87998
350.80,0.88089
351.00,0.88272
351.20,0.88919
351.40,0.89624
351.60,0.89840
351.80,0.90946
352.00,0.91200
352.20,0.91289
352.40,0.91497
352.60,0.92373
352.80,0.92954
353.00,0.93873
353.20,0.94342
353.40,0.94720
353.60,0.94933
353.80,0.95150
354.00,0.95988
354.20,0.96565
354.40,0.97117
354.60,0.97481
354.80,0.97594
355.00,0.97664
355.20,0.97871
355.40,0.98106
355.60,0.98848
355.80,0.99163
356.00,0.99129
356.20,0.99684
356.40,1.00748
356.60,1.00975
356.80,1.01350
357.00,1.01486
357.20,1.02143
357.40,1.01581
357.60,1.01446
357.80,1.01840
358.00,1.02088
358.20,1.01890
358.40,1.02092
358.60,1.01886
358.80,1.01844
359.00,1.02078
359.20,1.02002
359.40,1.02302
359.60,1.02535
359.80,1.02550
360.00,1.02327
360.20,1.02222
360.40,1.02347
360.60,1.02495
360.80,1.01774
361.00,1.01635
361.20,1.01422
361.40,1.00950
361.60,1.00326
361.80,1.00005
362.00,0.99229
362.20,0.98615
362.40,0.98329
362.60,0.98435
362.80,0.98596
363.00,0.98409
363.20,0.98610
363.40,0.98353
363.60,0.97630
363.80,0.97682
364.00,0.98222
364.20,0.97962
364.40,0.97767
364.60,0.97752
364.80,0.97273
365.00,0.97023
365.20,0.97309
365.40,0.97254
365.60,0.97155
365.80,0.96935
366.00,0.96691
366.20,0.96591
366.40,0.96585
366.60,0.96863
366.80,0.97276
367.00,0.97122
367.20,0.96772
367.40,0.96897
367.60,0.96858
367.80,0.96643
368.00,0.97233
368.20,0.97268
368.40,0.97398
368.60,0.97423
368.80,0.97729
369.00,0.97959
369.20,0.98469
369.40,0.98660
369.60,0.98931
369.80,0.99218
370.00,0.98800
370.20,0.98994
370.40,0.99547
370.60,0.99890
370.80,1.00255
371.00,1.01021
371.20,1.01459
371.40,1.01423
371.60,1.01822
371.80,1.01923
372.00,1.02122
372.20,1.02526
372.40,1.02594
372.60,1.02661
372.80,1.03065
373.00,1.03158
373.20,1.02962
373.40,1.03577
373.60,1.03990
373.80,1.04008
374.00,1.04528
374.20,1.04984
374.40,1.04854
374.60,1.05473
374.80,1.05938
375.00,1.05940
375.20,1.06265
375.40,1.06499
375.60,1.05913
375.80,1.05939
376.00,1.05908
376.20,1.05590
376.40,1.05924
376.60,1.06052
376.80,1.06211
377.00,1.06640
377.20,1.07031
377.40,1.07006
377.60,1.07010
377.80,1.07271
378.00,1.07128
378.20,1.07140
378.40,1.07241
378.60,1.07356
378.80,1.07015
379.00,1.06932
379.20,1.06890
379.40,1.06705
379.60,1.06695
379.80,1.06443
380.00,1.06529
380.20,1.06238
380.40,1.05618
380.60,1.05160
380.80,1.05328
381.00,1.05017
381.20,1.04595
381.40,1.04734
381.60,1.04941
381.80,1.04306
382.00,1.04177
382.20,1.04237
382.40,1.04034
382.60,1.03758
382.80,1.03376
383.00,1.02492
383.20,1.01969
383.40,1.01401
383.60,1.00958
383.80,1.00839
384.00,1.00854
384.20,1.00422
384.40,1.00238
384.60,0.99986
384.80,0.99709
385.00,0.99444
385.20,0.99160
385.40,0.98911
385.60,0.98403
385.80,0.98127
386.00,0.97968
386.20,0.97718
386.40,0.97315
386.60,0.97025
386.80,0.96762
387.00,0.96116
387.20,0.96146
387.40,0.95867
387.60,0.95618
387.80,0.95235
388.00,0.95058
388.20,0.94669
388.40,0.94473
388.60,0.94533
388.80,0.94489
389.00,0.94454
389.20,0.94195
389.40,0.93929
389.60,0.93441
389.80,0.93045
390.00,0.93064
390.20,0.92779
390.40,0.92843
390.60,0.92938
390.80,0.93057
391.00,0.92887
391.20,0.92964
391.40,0.93042
391.60,0.93257
391.80,0.93305
392.00,0.93287
392.20,0.93285
392.40,0.93080
392.60,0.92523
392.80,0.92691
393.00,0.92681
393.20,0.92593
393.40,0.92410
393.60,0.92711
393.80,0.92320
394.00,0.92222
394.20,0.92406
394.40,0.92792
394.60,0.92917
394.80,0.93285
395.00,0.93416
395.20,0.93459
395.40,0.93510
395.60,0.93544
395.80,0.93704
396.00,0.93796
396.20,0.93909
396.40,0.94346
396.60,0.94665
396.80,0.94476
397.00,0.94660
397.20,0.95137
397.40,0.95081
397.60,0.95412
397.80,0.95897
398.00,0.96594
398.20,0.96888
398.40,0.97254
398.60,0.97425
398.80,0.97892
399.00,0.98011
399.20,0.98190
399.40,0.98493
399.60,0.99059
399.80,0.99648
400.00,1.00260
400.20,1.01117
400.40,1.01720
400.60,1.02243
400.80,1.02564
401.00,1.02799
401.20,1.03102
401.40,1.03676
401.60,1.04066
401.80,1.04372
402.00,1.05017
402.20,1.05389
402.40,1.05692
402.60,1.06258
402.80,1.07166
403.00,1.07506
403.20,1.07856
403.40,1.08155
403.60,1.08333
403.80,1.08284
404.00,1.08618
404.20,1.09084
404.40,1.09403
404.60,1.09693
404.80,1.10085
405.00,1.10593
405.20,1.10935
405.40,1.11071
405.60,1.11369
405.80,1.11671
406.00,1.11753
406.20,1.11706
406.40,1.12056
406.60,1.12042
406.80,1.11844
407.00,1.11804
407.20,1.11699
407.40,1.11759
407.60,1.11691
407.80,1.11722
408.00,1.11538
408.20,1.11470
408.40,1.10972
408.60,1.10527
408.80,1.09991
409.00,1.09726
409.20,1.09365
409.40,1.09135
409.60,1.09068
409.80,1.08861
410.00,1.08494
410.20,1.08239
410.40,1.08059
410.60,1.07635
410.80,1.07307
411.00,1.06951
411.20,1.06538
411.40,1.05821
411.60,1.05305
411.80,1.05153
412.00,1.04961
412.20,1.04449
412.40,1.04375
412.60,1.04082
412.80,1.03814
413.00,1.03272
413.20,1.03256
413.40,1.03106
413.60,1.03328
413.80,1.03388
414.00,1.03734
414.20,1.04229
414.40,1.04999
414.60,1.05823
414.80,1.06542
415.00,1.07742
415.20,1.08975
415.40,1.10398
415.60,1.12134
415.80,1.14262
416.00,1.16441
416.20,1.19051
416.40,1.22164
416.60,1.25088
416.80,1.28382
417.00,1.32261
417.20,1.36158
417.40,1.40490
417.60,1.45382
417.80,1.50549
418.00,1.55776
418.20,1.61716
418.40,1.67110
418.60,1.73296
418.80,1.79777
419.00,1.86649
419.20,1.93260
419.40,2.00990
419.60,2.08503
419.80,2.16333
420.00,2.24822
420.20,2.33786
420.40,2.42204
420.60,2.51511
420.80,2.61001
421.00,2.69982
421.20,2.79340
421.40,2.89548
421.60,2.98985
421.80,3.08689
422.00,3.18418
422.20,3.28336
422.40,3.37658
422.60,3.47001
422.80,3.56793
423.00,3.66924
423.20,3.76917
423.40,3.86885
423.60,3.96860
423.80,4.06585
424.00,4.16047
424.20,4.25791
424.40,4.36277
424.60,4.46189
424.80,4.55739
425.00,4.65213
425.20,4.73887
425.40,4.82160
425.60,4.90723
425.80,4.99008
426.00,5.06985
426.20,5.15504
426.40,5.23445
426.60,5.31025
426.80,5.38535
427.00,5.46170
427.20,5.53227
427.40,5.60868
427.60,5.68391
427.80,5.76094
428.00,5.83556
428.20,5.89978
428.40,5.95868
428.60,6.02948
428.80,6.09136
429.00,6.15140
429.20,6.21427
429.40,6.27566
429.60,6.32814
429.80,6.38292
430.00,6.43796
430.20,6.49682
430.40,6.55186
430.60,6.60572
430.80,6.65326
431.00,6.70529
431.20,6.74743
431.40,6.79359
431.60,6.83771
431.80,6.88349
432.00,6.92491
432.20,6.97525
432.40,7.01757
432.60,7.05845
432.80,7.09872
433.00,7.13552
433.20,7.17243
433.40,7.20710
433.60,7.24505
433.80,7.27863
434.00,7.31447
434.20,7.34498
434.40,7.38085
434.60,7.40733
434.80,7.44284
435.00,7.48002
435.20,7.50909
435.40,7.54175
435.60,7.58166
435.80,7.61461
436.00,7.63644
436.20,7.67089
436.40,7.69877
436.60,7.72643
436.80,7.75356
437.00,7.78823
437.20,7.81859
437.40,7.84544
437.60,7.86701
437.80,7.88952
438.00,7.91173
438.20,7.93270
438.40,7.95725
438.60,7.98713
438.80,8.01395
439.00,8.03035
439.20,8.05447
439.40,8.07457
439.60,8.09062
439.80,8.10914
440.00,8.13703
440.20,8.15897
440.40,8.17994
440.60,8.19857
440.80,8.22178
441.00,8.23967
441.20,8.25470
441.40,8.27389
441.60,8.29590
441.80,8.31719
442.00,8.34231
442.20,8.36041
442.40,8.38168
442.60,8.40193
442.80,8.41538
443.00,8.43022
443.20,8.45168
443.40,8.46663
443.60,8.47933
443.80,8.50292
444.00,8.51878
444.20,8.53203
444.40,8.54495
444.60,8.55730
444.80,8.56981
445.00,8.58152
445.20,8.59873
445.40,8.61922
445.60,8.64181
445.80,8.65074
446.00,8.67555
446.20,8.68634
446.40,8.70192
446.60,8.71538
446.80,8.73328
447.00,8.74125
447.20,8.75597
447.40,8.77074
447.60,8.78789
447.80,8.80286
448.00,8.81944
448.20,8.83161
448.40,8.84181
448.60,8.85774
448.80,8.87232
449.00,8.88486
449.20,8.90683
449.40,8.92125
449.60,8.93193
449.80,8.94452
450.00,8.95510
450.20,8.97010
450.40,8.98429
450.60,8.99549
450.80,9.00584
451.00,9.02088
451.20,9.02925
451.40,9.03997
451.60,9.04637
451.80,9.06357
452.00,9.07283
452.20,9.08142
452.40,9.09191
452.60,9.11031
452.80,9.11939
453.00,9.13103
453.20,9.14808
453.40,9.16483
453.60,9.17959
453.80,9.19351
454.00,9.20903
454.20,9.21697
454.40,9.22541
454.60,9.23862
454.80,9.24487
455.00,9.24755
455.20,9.26216
455.40,9.27624
455.60,9.28325
455.80,9.29486
456.00,9.31602
456.20,9.31991
456.40,9.33107
456.60,9.34031
456.80,9.35840
457.00,9.37039
457.20,9.39452
457.40,9.40507
457.60,9.42345
457.80,9.43167
458.00,9.44177
458.20,9.44788
458.40,9.46239
458.60,9.46516
458.80,9.47885
459.00,9.48785
459.20,9.49969
459.40,9.50194
459.60,9.51077
459.80,9.52502
460.00,9.53343
460.20,9.55058
460.40,9.56502
460.60,9.58529
460.80,9.59272
461.00,9.60991
461.20,9.61452
461.40,9.62691
461.60,9.63317
461.80,9.64196
462.00,9.65655
462.20,9.66906
462.40,9.68012
462.60,9.68819
462.80,9.69905
463.00,9.69517
463.20,9.69560
463.40,9.70299
463.60,9.71678
463.80,9.72678
464.00,9.74203
464.20,9.75696
464.40,9.76398
464.60,9.77001
464.80,9.77698
465.00,9.78420
465.20,9.78713
465.40,9.79474
465.60,9.80121
465.80,9.80466
466.00,9.80831
466.20,9.82529
466.40,9.83603
466.60,9.83829
466.80,9.85006
467.00,9.85822
467.20,9.85609
467.40,9.86810
467.60,9.88149
467.80,9.88468
468.00,9.89255
468.20,9.90340
468.40,9.90133
468.60,9.90253
468.80,9.91486
469.00,9.91611
469.20,9.91680
469.40,9.92632
469.60,9.92939
469.80,9.92695
470.00,9.93635
470.20,9.94404
470.40,9.94621
470.60,9.94314
470.80,9.94335
471.00,9.94902
471.20,9.94722
471.40,9.94447
471.60,9.95198
471.80,9.96127
472.00,9.96168
472.20,9.96559
472.40,9.96956
472.60,9.98031
472.80,9.97716
473.00,9.97221
473.20,9.97780
473.40,9.97565
473.60,9.97362
473.80,9.97469
474.00,9.98095
474.20,9.97953
474.40,9.98354
474.60,9.98506
474.80,9.98137
475.00,9.97730
475.20,9.97132
475.40,9.96772
475.60,9.96408
475.80,9.96958
476.00,9.97350
476.20,9.97469
476.40,9.97790
476.60,9.98225
476.80,9.98026
477.00,9.97752
477.20,9.97578
477.40,9.97374
477.60,9.96993
477.80,9.96629
478.00,9.96014
478.20,9.96348
478.40,9.96066
478.60,9.95681
478.80,9.95310
479.00,9.95068
479.20,9.93767
479.40,9.93320
479.60,9.92335
479.80,9.92299
480.00,9.91927
480.20,9.91727
480.40,9.91126
480.60,9.91204
480.80,9.90440
481.00,9.90412
481.20,9.90279
481.40,9.90100
481.60,9.89640
481.80,9.89511
482.00,9.88932
482.20,9.88787
482.40,9.87917
482.60,9.87152
482.80,9.86383
483.00,9.85803
483.20,9.85324
483.40,9.85146
483.60,9.84978
483.80,9.84523
484.00,9.84084
484.20,9.82955
484.40,9.82535
484.60,9.82298
484.80,9.81972
485.00,9.81474
485.20,9.81083
485.40,9.80420
485.60,9.79401
485.80,9.78728
486.00,9.78162
486.20,9.77931
486.40,9.77089
486.60,9.76994
486.80,9.76541
487.00,9.76600
487.20,9.76159
487.40,9.75684
487.60,9.74917
487.80,9.74160
488.00,9.73188
488.20,9.72541
488.40,9.72292
488.60,9.72115
488.80,9.71840
489.00,9.70807
489.20,9.70433
489.40,9.69686
489.60,9.68120
489.80,9.68050
490.00,9.67243
490.20,9.66793
490.40,9.66907
490.60,9.67151
490.80,9.66262
491.00,9.66604
491.20,9.65971
491.40,9.65156
491.60,9.64598
491.80,9.63926
492.00,9.63346
492.20,9.62735
492.40,9.61631
492.60,9.60442
492.80,9.59601
493.00,9.58575
493.20,9.58076
493.40,9.57956
493.60,9.57370
493.80,9.57032
494.00,9.56089
494.20,9.55650
494.40,9.54973
494.60,9.55349
494.80,9.54850
495.00,9.55101
495.20,9.53757
495.40,9.53695
495.60,9.52930
495.80,9.52762
496.00,9.51944
496.20,9.51846
496.40,9.50982
496.60,9.49759
496.80,9.48757
497.00,9.48391
497.20,9.47740
497.40,9.46879
497.60,9.46846
497.80,9.46339
498.00,9.45358
498.20,9.44204
498.40,9.44213
498.60,9.43192
498.80,9.42104
499.00,9.41139
499.20,9.40359
499.40,9.39032
499.60,9.38848
499.80,9.37857
500.00,9.37267
500.20,9.36727
500.40,9.36257
500.60,9.34409
500.80,9.33828
501.00,9.32951
501.20,9.31739
501.40,9.30191
501.60,9.29468
501.80,9.28215
502.00,9.27313
502.20,9.26657
502.40,9.25267
502.60,9.24755
502.80,9.24151
503.00,9.23320
503.20,9.22215
503.40,9.22122
503.60,9.20949
503.80,9.20225
504.00,9.18680
504.20,9.17709
504.40,9.16688
504.60,9.15725
504.80,9.14101
505.00,9.13381
505.20,9.12482
505.40,9.10837
505.60,9.09281
505.80,9.08439
506.00,9.07414
506.20,9.06317
506.40,9.04980
506.60,9.04712
506.80,9.03805
507.00,9.02378
507.20,9.01150
507.40,9.00587
507.60,8.99091
507.80,8.98037
508.00,8.97044
508.20,8.96010
508.40,8.95192
508.60,8.93789
508.80,8.91910
509.00,8.90535
509.20,8.89864
509.40,8.88482
509.60,8.87331
509.80,8.86516
510.00,8.85521
510.20,8.83924
510.40,8.82671
510.60,8.82407
510.80,8.80915
511.00,8.79698
511.20,8.78212
511.40,8.77261
511.60,8.75473
511.80,8.74575
512.00,8.73244
512.20,8.72431
512.40,8.71375
512.60,8.70219
512.80,8.69044
513.00,8.67981
513.20,8.66693
513.40,8.65383
513.60,8.64179
513.80,8.62956
514.00,8.62468
514.20,8.61615
514.40,8.60298
514.60,8.59499
514.80,8.58509
515.00,8.57084
515.20,8.56495
515.40,8.55891
515.60,8.54507
515.80,8.53917
516.00,8.53164
516.20,8.51318
516.40,8.50474
516.60,8.49449
516.80,8.48247
517.00,8.47097
517.20,8.46515
517.40,8.45472
517.60,8.44590
517.80,8.43447
518.00,8.42692
518.20,8.41305
518.40,8.39793
518.60,8.38764
518.80,8.37528
519.00,8.35967
519.20,8.34688
519.40,8.33859
519.60,8.32348
519.80,8.31748
520.00,8.30957
520.20,8.30260
520.40,8.29024
520.60,8.28171
520.80,8.26604
521.00,8.25721
521.20,8.24944
521.40,8.24203
521.60,8.23351
521.80,8.22548
522.00,8.21387
522.20,8.20257
522.40,8.19245
522.60,8.17633
522.80,8.17183
523.00,8.16373
523.20,8.15352
523.40,8.14226
523.60,8.13651
523.80,8.12612
524.00,8.11443
524.20,8.10632
524.40,8.09687
524.60,8.08765
524.80,8.07485
525.00,8.06349
525.20,8.05090
525.40,8.03953
525.60,8.03079
525.80,8.01975
526.00,8.00756
526.20,7.99849
526.40,7.98914
526.60,7.97872
526.80,7.96720
527.00,7.95410
527.20,7.94246
527.40,7.92905
527.60,7.92125
527.80,7.91595
528.00,7.91464
528.20,7.90853
528.40,7.90283
528.60,7.88924
528.80,7.87470
529.00,7.86029
529.20,7.84758
529.40,7.82686
529.60,7.81963
529.80,7.81044
530.00,7.79793
530.20,7.78201
530.40,7.78221
530.60,7.76994
530.80,7.75693
531.00,7.74654
531.20,7.73536
531.40,7.72133
531.60,7.71105
531.80,7.70892
532.00,7.70313
532.20,7.70058
532.40,7.69038
532.60,7.67930
532.80,7.66276
533.00,7.65263
533.20,7.64169
533.40,7.63423
533.60,7.62184
533.80,7.61147
534.00,7.59891
534.20,7.58753
534.40,7.57804
534.60,7.56696
534.80,7.56318
535.00,7.55506
535.20,7.54491
535.40,7.53763
535.60,7.53649
535.80,7.52241
536.00,7.51742
536.20,7.50897
536.40,7.49947
536.60,7.48937
536.80,7.47852
537.00,7.46326
537.20,7.45003
537.40,7.43990
537.60,7.42850
537.80,7.42276
538.00,7.41454
538.20,7.40938
538.40,7.39877
538.60,7.39271
538.80,7.38040
539.00,7.36995
539.20,7.35756
539.40,7.34601
539.60,7.32984
539.80,7.32519
540.00,7.31583
540.20,7.30820
540.40,7.29936
540.60,7.29262
540.80,7.27681
541.00,7.26687
541.20,7.25665
541.40,7.24768
541.60,7.23841
541.80,7.23357
542.00,7.22636
542.20,7.21972
542.40,7.21029
542.60,7.20286
542.80,7.19051
543.00,7.17710
543.20,7.16970
543.40,7.16252
543.60,7.14983
543.80,7.14324
544.00,7.13470
544.20,7.12074
544.40,7.10926
544.60,7.09979
544.80,7.08729
545.00,7.07992
545.20,7.07042
545.40,7.05838
545.60,7.05203
545.80,7.04393
546.00,7.03762
546.20,7.03117
546.40,7.02415
546.60,7.01226
546.80,7.00152
547.00,6.98610
547.20,6.97533
547.40,6.96157
547.60,6.95271
547.80,6.94325
548.00,6.93965
548.20,6.92903
548.40,6.92307
548.60,6.91707
548.80,6.91263
549.00,6.90411
549.20,6.90097
549.40,6.89409
549.60,6.88619
549.80,6.87454
550.00,6.86707
550.20,6.86028
550.40,6.85309
550.60,6.84300
550.80,6.83949
551.00,6.82643
551.20,6.81828
551.40,6.80901
551.60,6.80123
551.80,6.79544
552.00,6.79229
552.20,6.78468
552.40,6.78028
552.60,6.77069
552.80,6.75945
553.00,6.75270
553.20,6.73965
553.40,6.72761
553.60,6.72552
553.80,6.71823
554.00,6.71173
554.20,6.70570
554.40,6.70696
554.60,6.69773
554.80,6.69409
555.00,6.68615
555.20,6.68406
555.40,6.67428
555.60,6.66854
555.80,6.66175
556.00,6.65973
556.20,6.65403
556.40,6.65293
556.60,6.64907
556.80,6.64705
557.00,6.64070
557.20,6.63448
557.40,6.63054
557.60,6.62664
557.80,6.61713
558.00,6.61147
558.20,6.60754
558.40,6.60008
558.60,6.59413
558.80,6.59010
559.00,6.58709
559.20,6.57978
559.40,6.57231
559.60,6.56838
559.80,6.56487
560.00,6.56410
560.20,6.56289
560.40,6.56132
560.60,6.56133
560.80,6.56088
561.00,6.55451
561.20,6.55288
561.40,6.55112
561.60,6.54704
561.80,6.54389
562.00,6.54187
562.20,6.53334
562.40,6.52850
562.60,6.52870
562.80,6.52216
563.00,6.51371
563.20,6.51377
563.40,6.51057
563.60,6.50501
563.80,6.50472
564.00,6.50470
564.20,6.50138
564.40,6.49909
564.60,6.49756
564.80,6.49278
565.00,6.49372
565.20,6.49070
565.40,6.49076
565.60,6.48471
565.80,6.48067
566.00,6.47751
566.20,6.48193
566.40,6.48279
566.60,6.48592
566.80,6.49157
567.00,6.49039
567.20,6.48594
567.40,6.48195
567.60,6.47518
567.80,6.47108
568.00,6.46744
568.20,6.47076
568.40,6.46828
568.60,6.46778
568.80,6.46438
569.00,6.46640
569.20,6.46355
569.40,6.46241
569.60,6.46578
569.80,6.46758
570.00,6.46722
570.20,6.46959
570.40,6.47297
570.60,6.47200
570.80,6.47497
571.00,6.47256
571.20,6.46974
571.40,6.46634
571.60,6.46781
571.80,6.46421
572.00,6.45998
572.20,6.46051
572.40,6.45626
572.60,6.45372
572.80,6.45765
573.00,6.46247
573.20,6.46124
573.40,6.46588
573.60,6.46734
573.80,6.46272
574.00,6.46300
574.20,6.46523
574.40,6.46800
574.60,6.46723
574.80,6.47456
575.00,6.48022
575.20,6.48252
575.40,6.48244
575.60,6.48510
575.80,6.47849
576.00,6.47316
576.20,6.47271
576.40,6.46775
576.60,6.46789
576.80,6.47057
577.00,6.47385
577.20,6.47788
577.40,6.48499
577.60,6.48704
577.80,6.49014
578.00,6.49199
578.20,6.48863
578.40,6.49138
578.60,6.49351
578.80,6.49661
579.00,6.50015
579.20,6.50232
579.40,6.50407
579.60,6.50508
579.80,6.50681
580.00,6.50901
580.20,6.51369
580.40,6.51414
580.60,6.51766
580.80,6.52107
581.00,6.52524
581.20,6.52598
581.40,6.52903
581.60,6.53431
581.80,6.53356
582.00,6.53225
582.20,6.53766
582.40,6.54285
582.60,6.54225
582.80,6.54808
583.00,6.55509
583.20,6.55373
583.40,6.55692
583.60,6.56943
583.80,6.57062
584.00,6.57240
584.20,6.57687
584.40,6.57953
584.60,6.58100
584.80,6.59050
585.00,6.59467
585.20,6.60264
585.40,6.60635
585.60,6.60050
585.80,6.60117
586.00,6.60449
586.20,6.60556
586.40,6.61124
586.60,6.62068
586.80,6.62291
587.00,6.63437
587.20,6.63973
587.40,6.64570
587.60,6.64855
587.80,6.65334
588.00,6.65109
588.20,6.65642
588.40,6.66249
588.60,6.66760
588.80,6.67489
589.00,6.68015
589.20,6.68530
589.40,6.68492
589.60,6.69458
589.80,6.69407
590.00,6.70108
590.20,6.70609
590.40,6.71057
590.60,6.70998
590.80,6.71630
591.00,6.72124
591.20,6.72242
591.40,6.73062
591.60,6.73550
591.80,6.74181
592.00,6.74620
592.20,6.75299
592.40,6.75255
592.60,6.76009
592.80,6.76436
593.00,6.77203
593.20,6.77775
593.40,6.79185
593.60,6.79629
593.80,6.80242
594.00,6.80823
594.20,6.81272
594.40,6.81823
594.60,6.82430
594.80,6.83272
595.00,6.83365
595.20,6.83881
595.40,6.84131
595.60,6.84533
595.80,6.85212
596.00,6.85651
596.20,6.86330
596.40,6.86662
596.60,6.87352
596.80,6.87830
597.00,6.88868
597.20,6.90183
597.40,6.90792
597.60,6.91692
597.80,6.92061
598.00,6.92220
598.20,6.92345
598.40,6.93003
598.60,6.93596
598.80,6.94321
599.00,6.95213
599.20,6.95938
599.40,6.96752
599.60,6.96979
599.80,6.97711
600.00,6.98558
600.20,6.99082
600.40,6.99557
600.60,7.00431
600.80,7.00689
601.00,7.01140
601.20,7.01487
601.40,7.02026
601.60,7.02700
601.80,7.03536
602.00,7.04424
602.20,7.05666
602.40,7.06616
602.60,7.07220
602.80,7.08071
603.00,7.08799
603.20,7.09082
603.40,7.09855
603.60,7.10347
603.80,7.11112
604.00,7.11499
604.20,7.12573
604.40,7.12953
604.60,7.13841
604.80,7.14791
605.00,7.15237
605.20,7.15754
605.40,7.16802
605.60,7.17082
605.80,7.17491
606.00,7.18658
606.20,7.19213
606.40,7.20177
606.60,7.21432
606.80,7.22294
607.00,7.22556
607.20,7.23604
607.40,7.24023
607.60,7.24328
607.80,7.25167
608.00,7.26405
608.20,7.27179
608.40,7.28118
608.60,7.29438
608.80,7.29864
609.00,7.30896
609.20,7.31487
609.40,7.32231
609.60,7.33365
609.80,7.34029
610.00,7.34412
610.20,7.35001
610.40,7.36096
610.60,7.36506
610.80,7.37671
611.00,7.38893
611.20,7.39906
611.40,7.40114
611.60,7.41132
611.80,7.42412
612.00,7.43585
612.20,7.44945
612.40,7.46308
612.60,7.47301
612.80,7.47972
613.00,7.48287
613.20,7.48842
613.40,7.49964
613.60,7.51101
613.80,7.52049
614.00,7.53638
614.20,7.54734
614.40,7.55108
614.60,7.56079
614.80,7.57135
615.00,7.58061
615.20,7.59813
615.40,7.61993
615.60,7.63335
615.80,7.64749
616.00,7.65298
616.20,7.66283
616.40,7.66878
616.60,7.67900
616.80,7.69164
617.00,7.70795
617.20,7.71729
617.40,7.73111
617.60,7.73959
617.80,7.75376
618.00,7.76539
618.20,7.77611
618.40,7.78312
618.60,7.79962
618.80,7.80844
619.00,7.82617
619.20,7.83587
619.40,7.85268
619.60,7.87036
619.80,7.88677
620.00,7.89801
620.20,7.91699
620.40,7.93391
620.60,7.94107
620.80,7.94979
621.00,7.95897
621.20,7.97800
621.40,7.99538
621.60,8.01102
621.80,8.03197
622.00,8.04794
622.20,8.05823
622.40,8.07276
622.60,8.09160
622.80,8.10453
623.00,8.12972
623.20,8.14834
623.40,8.16629
623.60,8.18308
623.80,8.20066
624.00,8.20849
624.20,8.22210
624.40,8.23852
624.60,8.24630
624.80,8.25957
625.00,8.27983
625.20,8.30084
625.40,8.31932
625.60,8.34383
625.80,8.36513
626.00,8.38469
626.20,8.40295
626.40,8.41211
626.60,8.42711
626.80,8.45262
627.00,8.46415
627.20,8.48289
627.40,8.50798
627.60,8.53582
627.80,8.55206
628.00,8.58120
628.20,8.60510
628.40,8.62540
628.60,8.64438
628.80,8.66566
629.00,8.68378
629.20,8.69933
629.40,8.71832
629.60,8.73746
629.80,8.75404
630.00,8.77787
630.20,8.80100
630.40,8.82992
630.60,8.86087
630.80,8.88273
631.00,8.90440
631.20,8.92761
631.40,8.95021
631.60,8.96182
631.80,8.98764
632.00,9.02190
632.20,9.05076
632.40,9.07366
632.60,9.10366
632.80,9.13599
633.00,9.15280
633.20,9.17602
633.40,9.20051
633.60,9.22954
633.80,9.25089
634.00,9.28053
634.20,9.30666
634.40,9.33680
634.60,9.36711
634.80,9.40006
635.00,9.42557
635.20,9.45445
635.40,9.48871
635.60,9.50830
635.80,9.53919
636.00,9.57050
636.20,9.60494
636.40,9.63358
636.60,9.66848
636.80,9.69578
637.00,9.72497
637.20,9.75573
637.40,9.78409
637.60,9.81758
637.80,9.85159
638.00,9.88244
638.20,9.91232
638.40,9.94440
638.60,9.97761
638.80,10.00468
639.00,10.04352
639.20,10.08214
639.40,10.11722
639.60,10.15398
639.80,10.19577
640.00,10.23373
640.20,10.27013
640.40,10.30358
640.60,10.33542
640.80,10.37320
641.00,10.40069
641.20,10.43349
641.40,10.47225
641.60,10.51093
641.80,10.53858
642.00,10.58165
642.20,10.61779
642.40,10.65642
642.60,10.69782
642.80,10.73996
643.00,10.77659
643.20,10.81412
643.40,10.85348
643.60,10.88426
643.80,10.92448
644.00,10.97032
644.20,11.00395
644.40,11.03763
644.60,11.08283
644.80,11.12822
645.00,11.15502
645.20,11.19817
645.40,11.23872
645.60,11.26901
645.80,11.29800
646.00,11.34257
646.20,11.39353
646.40,11.43171
646.60,11.48343
646.80,11.53217
647.00,11.57297
647.20,11.60769
647.40,11.65251
647.60,11.68937
647.80,11.73002
648.00,11.77094
648.20,11.81193
648.40,11.85172
648.60,11.89177
648.80,11.92586
649.00,11.96572
649.20,12.00631
649.40,12.05139
649.60,12.10088
649.80,12.15591
650.00,12.20513
650.20,12.25104
650.40,12.29197
650.60,12.33940
650.80,12.36974
651.00,12.41136
651.20,12.45428
651.40,12.49512
651.60,12.53381
651.80,12.58600
652.00,12.63509
652.20,12.67573
652.40,12.73283
652.60,12.77464
652.80,12.82024
653.00,12.85979
653.20,12.90846
653.40,12.95048
653.60,13.00171
653.80,13.04529
654.00,13.09915
654.20,13.14951
654.40,13.18833
654.60,13.23323
654.80,13.27855
655.00,13.32094
655.20,13.36569
655.40,13.42019
655.60,13.46849
655.80,13.51486
656.00,13.56463
656.20,13.61115
656.40,13.65717
656.60,13.71847
656.80,13.77510
657.00,13.82128
657.20,13.87844
657.40,13.93414
657.60,13.98225
657.80,14.04010
658.00,14.09962
658.20,14.14595
658.40,14.19695
658.60,14.24304
658.80,14.30195
659.00,14.35867
659.20,14.42465
659.40,14.48916
659.60,14.55236
659.80,14.59998
660.00,14.66267
660.20,14.72557
660.40,14.77713
660.60,14.83293
660.80,14.89035
661.00,14.94089
661.20,14.99507
661.40,15.06487
661.60,15.12553
661.80,15.18543
662.00,15.25599
662.20,15.31619
662.40,15.36847
662.60,15.43774
662.80,15.51419
663.00,15.58643
663.20,15.65377
663.40,15.72485
663.60,15.79561
663.80,15.85888
664.00,15.92569
664.20,15.99521
664.40,16.06250
664.60,16.13016
664.80,16.20687
665.00,16.27011
665.20,16.35417
665.40,16.43309
665.60,16.50059
665.80,16.57050
666.00,16.64713
666.20,16.71705
666.40,16.79493
666.60,16.86751
666.80,16.94689
667.00,17.01893
667.20,17.09884
667.40,17.16971
667.60,17.25231
667.80,17.32184
668.00,17.40522
668.20,17.47513
668.40,17.55902
668.60,17.64654
668.80,17.73861
669.00,17.82914
669.20,17.91498
669.40,17.99687
669.60,18.07744
669.80,18.14937
670.00,18.21516
670.20,18.29253
670.40,18.36539
670.60,18.45134
670.80,18.54304
671.00,18.62952
671.20,18.72112
671.40,18.81471
671.60,18.89991
671.80,18.99126
672.00,19.09355
672.20,19.17797
672.40,19.27641
672.60,19.35787
672.80,19.44125
673.00,19.54171
673.20,19.63999
673.40,19.73265
673.60,19.83458
673.80,19.93993
674.00,20.02885
674.20,20.12349
674.40,20.21841
674.60,20.31967
674.80,20.41787
675.00,20.52267
675.20,20.63462
675.40,20.74601
675.60,20.86001
675.80,20.96903
676.00,21.07334
676.20,21.17496
676.40,21.27922
676.60,21.37201
676.80,21.47718
677.00,21.57351
677.20,21.68473
677.40,21.78918
677.60,21.91129
677.80,22.02537
678.00,22.14803
678.20,22.26501
678.40,22.38326
678.60,22.49215
678.80,22.59826
679.00,22.70658
679.20,22.81758
679.40,22.93458
679.60,23.04934
679.80,23.16326
680.00,23.28155
680.20,23.40848
680.40,23.52249
680.60,23.65132
680.80,23.77997
681.00,23.90811
681.20,24.01388
681.40,24.13925
681.60,24.23887
681.80,24.37131
682.00,24.48418
682.20,24.61239
682.40,24.75109
682.60,24.90472
682.80,25.02581
683.00,25.15519
683.20,25.27743
683.40,25.38580
683.60,25.50528
683.80,25.63140
684.00,25.76470
684.20,25.91906
684.40,26.05939
684.60,26.20013
684.80,26.32824
685.00,26.45849
685.20,26.56936
685.40,26.70276
685.60,26.82644
685.80,26.95421
686.00,27.08787
686.20,27.20975
686.40,27.33094
686.60,27.43766
686.80,27.57401
687.00,27.69089
687.20,27.82661
687.40,27.96176
687.60,28.10846
687.80,28.24441
688.00,28.38191
688.20,28.51213
688.40,28.65027
688.60,28.79574
688.80,28.91421
689.00,29.05306
689.20,29.17185
689.40,29.29291
689.60,29.40729
689.80,29.54705
690.00,29.68921
690.20,29.82853
690.40,29.96529
690.60,30.10473
690.80,30.22210
691.00,30.31994
691.20,30.47538
691.40,30.59580
691.60,30.72452
691.80,30.85135
692.00,31.01117
692.20,31.13782
692.40,31.25325
692.60,31.37538
692.80,31.52386
693.00,31.63630
693.20,31.73621
693.40,31.89876
693.60,32.03880
693.80,32.15230
694.00,32.27223
694.20,32.40655
694.40,32.51725
694.60,32.60731
694.80,32.73997
695.00,32.86183
695.20,32.97757
695.40,33.09841
695.60,33.23657
695.80,33.35643
696.00,33.46027
696.20,33.58258
696.40,33.71030
696.60,33.82173
696.80,33.94217
697.00,34.08287
697.20,34.21316
697.40,34.31076
697.60,34.43443
697.80,34.53223
698.00,34.62574
698.20,34.74739
698.40,34.86966
698.60,34.99382
698.80,35.09095
699.00,35.22449
699.20,35.32816
699.40,35.43527
699.60,35.54079
699.80,35.66419
700.00,35.78637
700.20,35.88604
700.40,35.99871
700.60,36.13684
700.80,36.26760
701.00,36.39041
701.20,36.51634
701.40,36.63130
701.60,36.73439
701.80,36.84023
702.00,36.93607
702.20,37.07864
702.40,37.19757
702.60,37.29772
702.80,37.41442
703.00,37.54820
703.20,37.63019
703.40,37.74845
703.60,37.87281
703.80,37.99496
704.00,38.07131
704.20,38.18214
704.40,38.28655
704.60,38.37043
704.80,38.46491
705.00,38.57158
705.20,38.67112
705.40,38.76485
705.60,38.86908
705.80,38.97559
706.00,39.08372
706.20,39.18702
706.40,39.30454
706.60,39.41874
706.80,39.51003
707.00,39.58828
707.20,39.70872
707.40,39.77288
707.60,39.85126
707.80,39.90815
708.00,40.03292
708.20,40.10652
708.40,40.21429
708.60,40.31072
708.80,40.44312
709.00,40.54090
709.20,40.61695
709.40,40.70961
709.60,40.82600
709.80,40.90417
710.00,40.95659
710.20,41.04629
710.40,41.12996
710.60,41.17657
710.80,41.28888
711.00,41.37329
711.20,41.45581
711.40,41.53888
711.60,41.63290
711.80,41.68167
712.00,41.76802
712.20,41.86189
712.40,41.94059
712.60,42.03392
712.80,42.13648
713.00,42.22029
713.20,42.29200
713.40,42.35819
713.60,42.41786
713.80,42.49476
714.00,42.56948
714.20,42.63047
714.40,42.69303
714.60,42.72673
714.80,42.77438
715.00,42.84545
715.20,42.93916
715.40,43.03504
715.60,43.14503
715.80,43.20402
716.00,43.26428
716.20,43.31406
716.40,43.37648
716.60,43.44319
716.80,43.54589
717.00,43.61030
717.20,43.66799
717.40,43.74976
717.60,43.83543
717.80,43.87153
718.00,43.94729
718.20,44.01545
718.40,44.06711
718.60,44.08707
718.80,44.14305
719.00,44.22672
719.20,44.29772
719.40,44.32498
719.60,44.39551
719.80,44.47271
720.00,44.50581
720.20,44.53730
720.40,44.61719
720.60,44.66079
720.80,44.75614
721.00,44.85810
721.20,44.90961
721.40,44.96922
721.60,45.07312
721.80,45.07006
722.00,45.08502
722.20,45.17094
722.40,45.19972
722.60,45.22110
722.80,45.30982
723.00,45.36384
723.20,45.39783
723.40,45.43700
723.60,45.49351
723.80,45.51265
724.00,45.56088
724.20,45.60235
724.40,45.66390
724.60,45.69948
724.80,45.77578
725.00,45.80105
725.20,45.87573
725.40,45.93580
725.60,45.96674
725.80,46.03320
726.00,46.05359
726.20,46.05210
726.40,46.09804
726.60,46.16671
726.80,46.14544
727.00,46.24313
727.20,46.34360
727.40,46.40750
727.60,46.45063
727.80,46.49443
728.00,46.50840
728.20,46.51089
728.40,46.49919
728.60,46.50793
728.80,46.55427
729.00,46.58440
729.20,46.64988
729.40,46.73910
729.60,46.80780
729.80,46.87320
730.00,46.93390
730.20,46.99470
730.40,47.00429
730.60,47.02772
730.80,47.04090
731.00,47.06784
731.20,47.04327
731.40,47.08318
731.60,47.09458
731.80,47.11263
732.00,47.15189
732.20,47.21274
732.40,47.25359
732.60,47.30814
732.80,47.36013
733.00,47.38651
733.20,47.39637
733.40,47.42626
733.60,47.43404
733.80,47.42856
734.00,47.43980
734.20,47.45872
734.40,47.46978
734.60,47.50296
734.80,47.56604
735.00,47.59758
735.20,47.62658
735.40,47.67533
735.60,47.70276
735.80,47.74354
736.00,47.75557
736.20,47.80864
736.40,47.79185
736.60,47.83011
736.80,47.84117
737.00,47.87181
737.20,47.87650
737.40,47.92486
737.60,47.92749
737.80,47.94208
738.00,47.95479
738.20,47.97979
738.40,47.97954
738.60,48.03085
738.80,48.05881
739.00,48.10258
739.20,48.14213
739.40,48.16374
739.60,48.16566
739.80,48.22049
740.00,48.22998
740.20,48.25510
740.40,48.27457
740.60,48.27833
740.80,48.21320
741.00,48.23171
741.20,48.22469
741.40,48.29161
741.60,48.38035
741.80,48.40579
742.00,48.43772
742.20,48.41373
742.40,48.39076
742.60,48.39904
742.80,48.45430
743.00,48.48458
743.20,48.55483
743.40,48.59561
743.60,48.60350
743.80,48.60518
744.00,48.66555
744.20,48.69285
744.40,48.74845
744.60,48.77361
744.80,48.80494
745.00,48.73860
745.20,48.71461
745.40,48.72781
745.60,48.77029
745.80,48.84407
746.00,48.89634
746.20,48.94778
746.40,48.94977
746.60,48.92635
746.80,48.90667
747.00,48.93006
747.20,48.97541
747.40,48.94857
747.60,48.98042
747.80,49.00228
748.00,49.01875
748.20,49.02086
748.40,49.06479
748.60,49.08409
748.80,49.09000
749.00,49.17086
749.20,49.19715
749.40,49.20223
749.60,49.18557
749.80,49.25312
750.00,49.25581
750.20,49.27399
750.40,49.31533
750.60,49.39924
750.80,49.40189
751.00,49.35168
751.20,49.36297
751.40,49.37449
751.60,49.37265
751.80,49.37454
752.00,49.40894
752.20,49.41177
752.40,49.39769
752.60,49.41781
752.80,49.38226
753.00,49.39732
753.20,49.40273
753.40,49.46340
753.60,49.43614
753.80,49.42063
754.00,49.38368
754.20,49.39018
754.40,49.40372
754.60,49.44448
754.80,49.50612
755.00,49.54623
755.20,49.54806
755.40,49.57174
755.60,49.57333
755.80,49.67003
756.00,49.69811
756.20,49.74282
756.40,49.77651
756.60,49.83285
756.80,49.79452
757.00,49.80910
757.20,49.85457
757.40,49.77363
757.60,49.77057
757.80,49.77454
758.00,49.81971
758.20,49.85136
758.40,49.93114
758.60,49.93421
758.80,49.94608
759.00,49.94602
759.20,49.84838
759.40,49.81908
759.60,49.83694
759.80,49.87826
760.00,49.89436
760.20,49.99259
760.40,50.08181
760.60,50.08402
760.80,50.08360
761.00,50.08793
761.20,50.08333
761.40,50.08990
761.60,50.11601
761.80,50.13064
762.00,50.15485
762.20,50.19391
762.40,50.12765
762.60,50.12680
762.80,50.16758
763.00,50.18412
763.20,50.15264
763.40,50.18971
763.60,50.21191
763.80,50.19104
764.00,50.24436
764.20,50.31210
764.40,50.38940
764.60,50.35681
764.80,50.37023
765.00,50.35578
765.20,50.27747
765.40,50.22750
765.60,50.29534
765.80,50.34894
766.00,50.36770
766.20,50.47351
766.40,50.50995
766.60,50.48962
766.80,50.44984
767.00,50.43087
767.20,50.45138
767.40,50.47191
767.60,50.48931
767.80,50.52424
768.00,50.55497
768.20,50.50392
768.40,50.49999
768.60,50.52317
768.80,50.58477
769.00,50.58248
769.20,50.57116
769.40,50.59718
769.60,50.57860
769.80,50.48605
770.00,50.52346
770.20,50.57246
770.40,50.62425
770.60,50.66146
770.80,50.76112
771.00,50.78582
771.20,50.85087
771.40,50.83830
771.60,50.84161
771.80,50.83563
772.00,50.85305
772.20,50.78525
772.40,50.78439
772.60,50.73457
772.80,50.74684
773.00,50.74794
773.20,50.79586
773.40,50.80668
773.60,50.85074
773.80,50.80101
774.00,50.81664
774.20,50.82530
774.40,50.81263
774.60,50.91921
774.80,50.98498
775.00,50.91715
775.20,51.01379
775.40,51.04417
775.60,51.04113
775.80,51.06713
776.00,51.11868
776.20,51.09656
776.40,51.12706
776.60,51.08192
776.80,51.10166
777.00,51.16521
777.20,51.17085
777.40,51.21831
777.60,51.23906
777.80,51.17040
778.00,51.15315
778.20,51.07051
778.40,51.01610
778.60,50.99866
778.80,51.10022
779.00,51.10189
779.20,51.16593
779.40,51.17165
779.60,51.21461
779.80,51.15466
780.00,51.16700
780.20,51.21955
780.40,51.20562
780.60,51.28825
780.80,51.33803
781.00,51.31748
781.20,51.30736
781.40,51.31903
781.60,51.27690
781.80,51.28713
782.00,51.33772
782.20,51.32587
782.40,51.34637
782.60,51.28862
782.80,51.29308
783.00,51.28681
783.20,51.31379
783.40,51.39033
783.60,51.39837
783.80,51.40437
784.00,51.38177
784.20,51.39840
784.40,51.31921
784.60,51.40862
784.80,51.42347
785.00,51.49811
785.20,51.46539
785.40,51.50083
785.60,51.47853
785.80,51.49571
786.00,51.46677
786.20,51.49533
786.40,51.50610
786.60,51.50610
786.80,51.45388
787.00,51.52444
787.20,51.53971
787.40,51.61909
787.60,51.60737
787.80,51.66043
788.00,51.64645
788.20,51.62042
788.40,51.53843
788.60,51.58340
788.80,51.57241
789.00,51.53332
789.20,51.53677
789.40,51.62742
789.60,51.67595
789.80,51.71021
790.00,51.78072
790.20,51.83944
790.40,51.81591
790.60,51.77604
790.80,51.78341
791.00,51.78795
791.20,51.71869
791.40,51.71174
791.60,51.73907
791.80,51.72350
792.00,51.67852
792.20,51.77689
792.40,51.81670
792.60,51.76769
792.80,51.81432
793.00,51.79198
793.20,51.77065
793.40,51.77236
793.60,51.83207
793.80,51.84463
794.00,51.86333
794.20,51.87881
794.40,51.83169
794.60,51.84150
794.80,51.84101
795.00,51.89971
795.20,51.85612
795.40,51.89309
795.60,51.89511
795.80,51.87988
796.00,51.84420
796.20,51.85566
796.40,51.87767
796.60,51.92571
796.80,51.86717
797.00,51.88787
797.20,51.85328
797.40,51.84294
797.60,51.87764
797.80,51.97794
798.00,52.01839
798.20,52.06984
798.40,52.07692
798.60,51.96585
798.80,51.98020
799.00,51.99754
799.20,52.00277
799.40,52.00932
799.60,52.04297
799.80,51.99468
800.00,51.94702
