"Resin Sapphire Slow 3 - RawData"
"Wavelength nm.","T%"
200.00,49.95081
200.20,50.05412
200.40,49.81392
200.60,49.99992
200.80,50.53499
201.00,50.66732
201.20,50.42940
201.40,50.68247
201.60,50.62243
201.80,50.38557
202.00,50.22464
202.20,50.30376
202.40,50.38769
202.60,50.80325
202.80,50.92798
203.00,51.10256
203.20,51.78918
203.40,51.96593
203.60,51.36477
203.80,51.60569
204.00,51.76945
204.20,51.65380
204.40,51.68488
204.60,51.72529
204.80,51.66714
205.00,51.81127
205.20,51.79968
205.40,52.04564
205.60,52.60783
205.80,52.68489
206.00,52.60801
206.20,52.41870
206.40,52.69411
206.60,52.73255
206.80,52.94121
207.00,53.09307
207.20,53.10395
207.40,52.55497
207.60,52.68348
207.80,52.78404
208.00,52.89688
208.20,53.16828
208.40,53.44314
208.60,53.18459
208.80,52.96100
209.00,53.03119
209.20,52.92400
209.40,53.08748
209.60,53.23712
209.80,53.46805
210.00,53.63848
210.20,53.43680
210.40,53.13565
210.60,53.08992
210.80,53.19582
211.00,53.30868
211.20,53.64033
211.40,53.82891
211.60,53.95520
211.80,53.84676
212.00,53.59773
212.20,53.61637
212.40,53.71541
212.60,53.86733
212.80,53.90441
213.00,54.15940
213.20,54.25252
213.40,54.41778
213.60,54.32634
213.80,54.48181
214.00,54.41322
214.20,54.46947
214.40,54.28321
214.60,54.46488
214.80,54.38828
215.00,54.32777
215.20,54.32495
215.40,54.35187
215.60,54.18177
215.80,54.16428
216.00,54.32689
216.20,54.15014
216.40,54.27957
216.60,54.31049
216.80,54.29062
217.00,54.20849
217.20,54.40677
217.40,54.05896
217.60,54.03283
217.80,54.15199
218.00,54.18128
218.20,54.10835
218.40,54.43839
218.60,54.51717
218.80,54.63579
219.00,54.77707
219.20,54.96472
219.40,55.02952
219.60,55.03955
219.80,54.88582
220.00,54.84889
220.20,54.95076
220.40,54.83649
220.60,54.86281
220.80,54.91876
221.00,54.81628
221.20,54.58575
221.40,54.82208
221.60,54.86376
221.80,54.99166
222.00,55.03182
222.20,55.15387
222.40,54.95150
222.60,55.06307
222.80,55.08785
223.00,55.21741
223.20,55.21239
223.40,55.25594
223.60,55.16264
223.80,54.98451
224.00,54.88768
224.20,54.84937
224.40,54.87012
224.60,54.97406
224.80,55.08932
225.00,55.19906
225.20,55.10231
225.40,55.24816
225.60,55.26533
225.80,55.37106
226.00,55.40684
226.20,55.58192
226.40,55.71675
226.60,55.55088
226.80,55.45785
227.00,55.55828
227.20,55.68520
227.40,55.51113
227.60,55.69281
227.80,55.78082
228.00,55.68685
228.20,55.60801
228.40,55.65043
228.60,55.62184
228.80,55.66919
229.00,55.66671
229.20,55.76991
229.40,55.86810
229.60,55.79198
229.80,55.80341
230.00,55.85412
230.20,55.80449
230.40,55.82713
230.60,55.92967
230.80,55.98276
231.00,55.98929
231.20,56.01842
231.40,55.97838
231.60,56.04986
231.80,56.01835
232.00,56.10390
232.20,56.18339
232.40,56.19391
232.60,56.30526
232.80,56.32581
233.00,56.26483
233.20,56.30378
233.40,56.40920
233.60,56.38032
233.80,56.31244
234.00,56.47223
234.20,56.47900
234.40,56.47333
234.60,56.46176
234.80,56.68647
235.00,56.68380
235.20,56.84374
235.40,56.86786
235.60,56.85245
235.80,56.79841
236.00,56.78783
236.20,56.70369
236.40,56.75094
236.60,56.83212
236.80,56.88983
237.00,56.85711
237.20,56.91759
237.40,57.00415
237.60,56.97099
237.80,57.02325
238.00,57.17056
238.20,57.29153
238.40,57.28335
238.60,57.36510
238.80,57.39589
239.00,57.31840
239.20,57.29026
239.40,57.37693
239.60,57.50082
239.80,57.56155
240.00,57.63409
240.20,57.65331
240.40,57.62021
240.60,57.59284
240.80,57.56985
241.00,57.67553
241.20,57.61537
241.40,57.67888
241.60,57.67022
241.80,57.72118
242.00,57.76504
242.20,57.92929
242.40,57.99296
242.60,58.10524
242.80,58.19249
243.00,58.20166
243.20,58.23560
243.40,58.20997
243.60,58.22926
243.80,58.19761
244.00,58.30752
244.20,58.34618
244.40,58.45698
244.60,58.51575
244.80,58.62510
245.00,58.56462
245.20,58.57781
245.40,58.62774
245.60,58.66413
245.80,58.67970
246.00,58.76940
246.20,58.86486
246.40,58.86050
246.60,58.90539
246.80,58.95873
247.00,58.95562
247.20,58.92081
247.40,58.93732
247.60,58.89802
247.80,58.91358
248.00,58.91163
248.20,58.93562
248.40,59.03211
248.60,59.11860
248.80,59.15498
249.00,59.29334
249.20,59.44774
249.40,59.42250
249.60,59.41485
249.80,59.40168
250.00,59.42660
250.20,59.30533
250.40,59.36103
250.60,59.46408
250.80,59.57819
251.00,59.49578
251.20,59.56666
251.40,59.59344
251.60,59.57236
251.80,59.52708
252.00,59.65224
252.20,59.75887
252.40,59.81602
252.60,59.84014
252.80,59.92616
253.00,59.84904
253.20,59.69648
253.40,59.74623
253.60,59.78555
253.80,59.78159
254.00,59.90217
254.20,60.03288
254.40,59.96306
254.60,60.03842
254.80,60.01487
255.00,60.01732
255.20,60.09685
255.40,60.13274
255.60,60.15530
255.80,60.21589
256.00,60.14842
256.20,60.11228
256.40,60.15584
256.60,60.14964
256.80,60.16243
257.00,60.29351
257.20,60.32266
257.40,60.29859
257.60,60.28121
257.80,60.32792
258.00,60.33813
258.20,60.40598
258.40,60.45554
258.60,60.47634
258.80,60.48791
259.00,60.44726
259.20,60.37705
259.40,60.41019
259.60,60.45964
259.80,60.45715
260.00,60.55095
260.20,60.55245
260.40,60.55632
260.60,60.54950
260.80,60.54271
261.00,60.56406
261.20,60.64030
261.40,60.69121
261.60,60.67167
261.80,60.69952
262.00,60.66148
262.20,60.64599
262.40,60.62828
262.60,60.68884
262.80,60.60122
263.00,60.62956
263.20,60.55945
263.40,60.50673
263.60,60.51011
263.80,60.67083
264.00,60.71411
264.20,60.75807
264.40,60.85234
264.60,60.85222
264.80,60.77055
265.00,60.73309
265.20,60.76423
265.40,60.72065
265.60,60.69938
265.80,60.79699
266.00,60.79546
266.20,60.75697
266.40,60.75183
266.60,60.79180
266.80,60.76605
267.00,60.81147
267.20,60.90736
267.40,60.92788
267.60,60.92217
267.80,60.88680
268.00,60.92158
268.20,60.92631
268.40,60.94906
268.60,61.00778
268.80,61.05303
269.00,60.98984
269.20,60.92693
269.40,60.91028
269.60,60.89286
269.80,60.90067
270.00,60.93614
270.20,60.94412
270.40,61.00554
270.60,60.94639
270.80,60.88465
271.00,60.85824
271.20,60.86888
271.40,60.83180
271.60,60.91124
271.80,60.92150
272.00,60.95053
272.20,61.01840
272.40,61.03105
272.60,61.01123
272.80,61.08049
273.00,61.04220
273.20,60.96861
273.40,60.95989
273.60,60.98316
273.80,60.99303
274.00,61.00894
274.20,61.03510
274.40,61.05956
274.60,61.02201
274.80,60.98602
275.00,60.98484
275.20,60.92846
275.40,60.92508
275.60,60.96771
275.80,60.95400
276.00,60.98589
276.20,61.08462
276.40,61.15140
276.60,61.16814
276.80,61.22072
277.00,61.26764
277.20,61.30774
277.40,61.27840
277.60,61.27315
277.80,61.32133
278.00,61.30587
278.20,61.24505
278.40,61.17218
278.60,61.20409
278.80,61.21177
279.00,61.24064
279.20,61.27369
279.40,61.35996
279.60,61.37171
279.80,61.29079
280.00,61.18610
280.20,61.15570
280.40,61.09939
280.60,61.16673
280.80,61.19160
281.00,61.30034
281.20,61.41837
281.40,61.43516
281.60,61.32943
281.80,61.31693
282.00,61.28676
282.20,61.16602
282.40,61.23477
282.60,61.20571
282.80,61.20276
283.00,61.16132
283.20,61.27158
283.40,61.21464
283.60,61.30671
283.80,61.41140
284.00,61.56374
284.20,61.48717
284.40,61.54324
284.60,61.59910
284.80,61.64187
285.00,61.58140
285.20,61.70054
285.40,61.70207
285.60,61.65586
285.80,61.62698
286.00,61.64150
286.20,61.58901
286.40,61.67974
286.60,61.70295
286.80,61.68516
287.00,61.75206
287.20,61.83457
287.40,61.80289
287.60,61.79087
287.80,61.87876
288.00,61.89186
288.20,61.90286
288.40,61.96626
288.60,61.99337
288.80,61.97340
289.00,61.98466
289.20,62.01828
289.40,62.03009
289.60,62.10363
289.80,62.15665
290.00,62.19769
290.20,62.13048
290.40,62.25165
290.60,62.25564
290.80,62.24596
291.00,62.22472
291.20,62.27175
291.40,62.16422
291.60,62.22278
291.80,62.26023
292.00,62.30989
292.20,62.30237
292.40,62.30220
292.60,62.29746
292.80,62.28175
293.00,62.29393
293.20,62.35999
293.40,62.37324
293.60,62.36098
293.80,62.35934
294.00,62.41347
294.20,62.47242
294.40,62.48749
294.60,62.49644
294.80,62.56822
295.00,62.59716
295.20,62.61390
295.40,62.71136
295.60,62.72662
295.80,62.78640
296.00,62.73113
296.20,62.70905
296.40,62.71256
296.60,62.71193
296.80,62.71873
297.00,62.79671
297.20,62.83951
297.40,62.81573
297.60,62.93889
297.80,62.84298
298.00,62.79721
298.20,62.76841
298.40,62.79258
298.60,62.75530
298.80,62.87997
299.00,62.93866
299.20,62.97153
299.40,62.94582
299.60,62.93514
299.80,62.87308
300.00,62.85652
300.20,62.84468
300.40,62.84518
300.60,62.83877
300.80,62.88453
301.00,62.87786
301.20,62.93574
301.40,62.97762
301.60,63.08057
301.80,63.07827
302.00,63.08907
302.20,63.12506
302.40,63.15514
302.60,63.12036
302.80,63.19298
303.00,63.28018
303.20,63.27153
303.40,63.27995
303.60,63.26662
303.80,63.22287
304.00,63.17620
304.20,63.12330
304.40,63.10686
304.60,63.15302
304.80,63.16299
305.00,63.11718
305.20,63.17335
305.40,63.18734
305.60,63.24028
305.80,63.16984
306.00,63.18702
306.20,63.15623
306.40,63.10947
306.60,63.05206
306.80,63.14098
307.00,63.13216
307.20,63.18958
307.40,63.17275
307.60,63.14398
307.80,63.07638
308.00,63.08579
308.20,63.03523
308.40,63.11451
308.60,63.11096
308.80,63.16857
309.00,63.26401
309.20,63.22426
309.40,63.24358
309.60,63.22226
309.80,63.27515
310.00,63.26826
310.20,63.32537
310.40,63.34011
310.60,63.37557
310.80,63.30522
311.00,63.25212
311.20,63.26739
311.40,63.23472
311.60,63.29389
311.80,63.33426
312.00,63.27950
312.20,63.25882
312.40,63.33792
312.60,63.30744
312.80,63.30823
313.00,63.40622
313.20,63.49562
313.40,63.48547
313.60,63.50925
313.80,63.63989
314.00,63.68096
314.20,63.66387
314.40,63.72684
314.60,63.73023
314.80,63.60932
315.00,63.59925
315.20,63.50525
315.40,63.40703
315.60,63.36235
315.80,63.39130
316.00,63.30293
316.20,63.34755
316.40,63.38322
316.60,63.45295
316.80,63.44511
317.00,63.49679
317.20,63.58447
317.40,63.53598
317.60,63.55208
317.80,63.58531
318.00,63.61429
318.20,63.52176
318.40,63.52912
318.60,63.45680
318.80,63.44202
319.00,63.43732
319.20,63.54714
319.40,63.69213
319.60,63.79546
319.80,63.82062
320.00,63.81093
320.20,63.79169
320.40,63.72263
320.60,63.63465
320.80,63.69995
321.00,63.82397
321.20,63.86379
321.40,63.87343
321.60,63.97234
321.80,63.95457
322.00,63.80308
322.20,63.77110
322.40,63.72843
322.60,63.76013
322.80,63.75469
323.00,63.87891
323.20,63.86763
323.40,63.99664
323.60,63.93556
323.80,64.00267
324.00,63.95440
324.20,63.98846
324.40,63.87667
324.60,63.98473
324.80,63.94913
325.00,64.01733
325.20,64.09297
325.40,64.20240
325.60,64.22031
325.80,64.20648
326.00,64.19038
326.20,64.13452
326.40,64.05308
326.60,64.03861
326.80,64.06730
327.00,64.08029
327.20,64.07356
327.40,64.16237
327.60,64.11166
327.80,64.19615
328.00,64.17234
328.20,64.19730
328.40,64.16550
328.60,64.16109
328.80,64.04249
329.00,64.10594
329.20,64.08806
329.40,64.08926
329.60,64.17310
329.80,64.23882
330.00,64.24394
330.20,64.27582
330.40,64.25297
330.60,64.14025
330.80,64.21626
331.00,64.20280
331.20,64.27037
331.40,64.37792
331.60,64.48318
331.80,64.42304
332.00,64.42490
332.20,64.39660
332.40,64.32325
332.60,64.29753
332.80,64.27678
333.00,64.28136
333.20,64.23948
333.40,64.28407
333.60,64.34530
333.80,64.38046
334.00,64.41513
334.20,64.41337
334.40,64.42974
334.60,64.38541
334.80,64.38809
335.00,64.36006
335.20,64.51097
335.40,64.45223
335.60,64.51370
335.80,64.59544
336.00,64.58338
336.20,64.47386
336.40,64.64307
336.60,64.58722
336.80,64.44131
337.00,64.41332
337.20,64.46596
337.40,64.38656
337.60,64.46094
337.80,64.54365
338.00,64.70211
338.20,64.72302
338.40,64.69495
338.60,64.68874
338.80,64.69725
339.00,64.68922
339.20,64.70346
339.40,64.71466
339.60,64.58855
339.80,64.61790
340.00,64.64313
340.20,64.64757
340.40,64.67760
340.60,64.80601
340.80,64.79856
341.00,64.75002
341.20,64.74664
341.40,64.74547
341.60,64.72162
341.80,64.82236
342.00,64.98430
342.20,64.97479
342.40,64.99797
342.60,65.01167
342.80,64.97689
343.00,64.82851
343.20,64.84666
343.40,64.81968
343.60,64.84588
343.80,64.81645
344.00,64.78571
344.20,64.79741
344.40,64.86601
344.60,64.85618
344.80,64.84818
345.00,64.86253
345.20,64.93257
345.40,64.91212
345.60,64.97117
345.80,64.98073
346.00,65.04042
346.20,64.94620
346.40,64.90762
346.60,64.87533
346.80,64.90267
347.00,64.85416
347.20,64.95495
347.40,65.04057
347.60,65.10069
347.80,65.08930
348.00,65.13538
348.20,65.14534
348.40,65.12367
348.60,65.05864
348.80,65.08489
349.00,65.04090
349.20,65.02364
349.40,65.03651
349.60,65.07723
349.80,65.13197
350.00,65.16685
350.20,65.14840
350.40,65.20140
350.60,65.18498
350.80,65.13791
351.00,65.12901
351.20,65.13332
351.40,65.09585
351.60,65.13019
351.80,65.16923
352.00,65.26696
352.20,65.24742
352.40,65.23521
352.60,65.22533
352.80,65.19129
353.00,65.18091
353.20,65.18639
353.40,65.28337
353.60,65.30904
353.80,65.34688
354.00,65.37257
354.20,65.38516
354.40,65.33148
354.60,65.30827
354.80,65.32392
355.00,65.29745
355.20,65.29682
355.40,65.28378
355.60,65.28732
355.80,65.26939
356.00,65.23552
356.20,65.26293
356.40,65.20606
356.60,65.20310
356.80,65.19576
357.00,65.13279
357.20,65.08929
357.40,65.17707
357.60,65.22040
357.80,65.19392
358.00,65.33775
358.20,65.35735
358.40,65.31571
358.60,65.29723
358.80,65.27739
359.00,65.20211
359.20,65.22446
359.40,65.24303
359.60,65.22600
359.80,65.24716
360.00,65.26802
360.20,65.25576
360.40,65.24306
360.60,65.33729
360.80,65.35320
361.00,65.32574
361.20,65.32792
361.40,65.36763
361.60,65.21114
361.80,65.21863
362.00,65.28614
362.20,65.31748
362.40,65.25056
362.60,65.35560
362.80,65.38560
363.00,65.35261
363.20,65.29863
363.40,65.26810
363.60,65.18886
363.80,65.15991
364.00,65.14167
364.20,65.14040
364.40,65.15049
364.60,65.20801
364.80,65.24476
365.00,65.28816
365.20,65.32048
365.40,65.39311
365.60,65.39634
365.80,65.32115
366.00,65.29342
366.20,65.33285
366.40,65.24734
366.60,65.24918
366.80,65.29945
367.00,65.38773
367.20,65.33708
367.40,65.43612
367.60,65.46870
367.80,65.44410
368.00,65.32269
368.20,65.37741
368.40,65.40236
368.60,65.34475
368.80,65.39219
369.00,65.40127
369.20,65.37506
369.40,65.32780
369.60,65.43544
369.80,65.41682
370.00,65.45599
370.20,65.38779
370.40,65.48345
370.60,65.47798
370.80,65.49140
371.00,65.52004
371.20,65.57010
371.40,65.51836
371.60,65.52883
371.80,65.50472
372.00,65.49773
372.20,65.53224
372.40,65.55912
372.60,65.52669
372.80,65.53807
373.00,65.53026
373.20,65.53850
373.40,65.58263
373.60,65.56767
373.80,65.57444
374.00,65.55917
374.20,65.58723
374.40,65.51911
374.60,65.49684
374.80,65.49126
375.00,65.56469
375.20,65.54078
375.40,65.53238
375.60,65.61754
375.80,65.67547
376.00,65.60925
376.20,65.60748
376.40,65.64412
376.60,65.59871
376.80,65.56923
377.00,65.60102
377.20,65.62039
377.40,65.61359
377.60,65.63170
377.80,65.62116
378.00,65.62960
378.20,65.64337
378.40,65.62843
378.60,65.61336
378.80,65.62909
379.00,65.61876
379.20,65.62198
379.40,65.62016
379.60,65.61500
379.80,65.58890
380.00,65.56934
380.20,65.52130
380.40,65.51386
380.60,65.52120
380.80,65.55504
381.00,65.57961
381.20,65.62244
381.40,65.68896
381.60,65.68568
381.80,65.73014
382.00,65.75560
382.20,65.74382
382.40,65.65677
382.60,65.62642
382.80,65.60982
383.00,65.60726
383.20,65.62825
383.40,65.64604
383.60,65.68672
383.80,65.67095
384.00,65.68887
384.20,65.69942
384.40,65.73822
384.60,65.73112
384.80,65.74194
385.00,65.71015
385.20,65.71766
385.40,65.74032
385.60,65.75104
385.80,65.75828
386.00,65.78655
386.20,65.75325
386.40,65.75697
386.60,65.75614
386.80,65.74196
387.00,65.71051
387.20,65.79598
387.40,65.76858
387.60,65.76391
387.80,65.73334
388.00,65.77690
388.20,65.71044
388.40,65.73336
388.60,65.70868
388.80,65.75519
389.00,65.73287
389.20,65.74083
389.40,65.76158
389.60,65.78856
389.80,65.80043
390.00,65.79101
390.20,65.79945
390.40,65.77882
390.60,65.80721
390.80,65.79127
391.00,65.79672
391.20,65.79564
391.40,65.82042
391.60,65.79544
391.80,65.78567
392.00,65.80009
392.20,65.79033
392.40,65.78423
392.60,65.80617
392.80,65.81013
393.00,65.85996
393.20,65.88952
393.40,65.86012
393.60,65.90437
393.80,65.93980
394.00,65.89461
394.20,65.93901
394.40,65.96746
394.60,65.89565
394.80,65.86930
395.00,65.87504
395.20,65.81843
395.40,65.84389
395.60,65.87224
395.80,65.89879
396.00,65.90765
396.20,65.93729
396.40,65.94115
396.60,65.95077
396.80,65.94696
397.00,65.91923
397.20,65.89906
397.40,65.90319
397.60,65.96456
397.80,65.98717
398.00,66.01524
398.20,66.05812
398.40,66.06845
398.60,66.00298
398.80,65.96878
399.00,65.99990
399.20,65.98219
399.40,65.95762
399.60,65.99006
399.80,66.04503
400.00,66.07125
400.20,66.08567
400.40,66.10345
400.60,66.11638
400.80,66.08524
401.00,66.07273
401.20,66.04779
401.40,66.03349
401.60,66.04466
401.80,66.04402
402.00,66.02862
402.20,66.05839
402.40,66.08158
402.60,66.08779
402.80,66.12339
403.00,66.13574
403.20,66.15470
403.40,66.14859
403.60,66.15450
403.80,66.14214
404.00,66.14134
404.20,66.15186
404.40,66.13816
404.60,66.14676
404.80,66.19609
405.00,66.21419
405.20,66.22086
405.40,66.26665
405.60,66.21687
405.80,66.19487
406.00,66.19516
406.20,66.16355
406.40,66.15290
406.60,66.25490
406.80,66.25080
407.00,66.23821
407.20,66.26866
407.40,66.30092
407.60,66.24791
407.80,66.29347
408.00,66.33645
408.20,66.34867
408.40,66.31911
408.60,66.33257
408.80,66.32338
409.00,66.36530
409.20,66.36971
409.40,66.38702
409.60,66.36616
409.80,66.35203
410.00,66.32886
410.20,66.32575
410.40,66.32472
410.60,66.38607
410.80,66.40255
411.00,66.37977
411.20,66.38739
411.40,66.39342
411.60,66.37359
411.80,66.40255
412.00,66.46755
412.20,66.48980
412.40,66.52391
412.60,66.54867
412.80,66.52786
413.00,66.48941
413.20,66.50923
413.40,66.49455
413.60,66.48085
413.80,66.50267
414.00,66.51835
414.20,66.44386
414.40,66.46461
414.60,66.47655
414.80,66.47775
415.00,66.47762
415.20,66.59440
415.40,66.61062
415.60,66.58666
415.80,66.63300
416.00,66.66821
416.20,66.62984
416.40,66.64298
416.60,66.72777
416.80,66.71746
417.00,66.69028
417.20,66.72930
417.40,66.73732
417.60,66.71184
417.80,66.72856
418.00,66.76896
418.20,66.78055
418.40,66.81460
418.60,66.82958
418.80,66.86676
419.00,66.90960
419.20,66.94979
419.40,66.95900
419.60,67.00440
419.80,66.99968
420.00,66.98607
420.20,66.96460
420.40,66.98453
420.60,66.99685
420.80,67.01338
421.00,67.02433
421.20,67.05835
421.40,67.04782
421.60,67.06736
421.80,67.07335
422.00,67.10913
422.20,67.12499
422.40,67.15932
422.60,67.13894
422.80,67.19206
423.00,67.21011
423.20,67.20601
423.40,67.23818
423.60,67.26368
423.80,67.26033
424.00,67.29155
424.20,67.29812
424.40,67.30092
424.60,67.31592
424.80,67.31975
425.00,67.31560
425.20,67.35085
425.40,67.37679
425.60,67.43081
425.80,67.41210
426.00,67.43431
426.20,67.46455
426.40,67.45417
426.60,67.43388
426.80,67.46287
427.00,67.45305
427.20,67.43767
427.40,67.46600
427.60,67.47110
427.80,67.50585
428.00,67.53299
428.20,67.54400
428.40,67.55071
428.60,67.58891
428.80,67.59983
429.00,67.59485
429.20,67.60222
429.40,67.59831
429.60,67.59802
429.80,67.59287
430.00,67.60885
430.20,67.62125
430.40,67.62130
430.60,67.62303
430.80,67.64646
431.00,67.65801
431.20,67.67117
431.40,67.70990
431.60,67.72559
431.80,67.74599
432.00,67.75757
432.20,67.76210
432.40,67.74977
432.60,67.71290
432.80,67.69484
433.00,67.67857
433.20,67.67885
433.40,67.68191
433.60,67.71425
433.80,67.72719
434.00,67.77249
434.20,67.79389
434.40,67.79906
434.60,67.82323
434.80,67.81458
435.00,67.77801
435.20,67.77765
435.40,67.79806
435.60,67.79532
435.80,67.79950
436.00,67.84031
436.20,67.84786
436.40,67.83925
436.60,67.82857
436.80,67.84913
437.00,67.84302
437.20,67.82905
437.40,67.84644
437.60,67.87688
437.80,67.87515
438.00,67.84766
438.20,67.84554
438.40,67.85403
438.60,67.84817
438.80,67.85606
439.00,67.90475
439.20,67.97575
439.40,67.97381
439.60,68.00293
439.80,67.99608
440.00,67.99859
440.20,67.94780
440.40,67.94892
440.60,67.94990
440.80,67.97005
441.00,67.95149
441.20,67.96010
441.40,67.96432
441.60,67.92338
441.80,67.92896
442.00,67.94602
442.20,67.95082
442.40,67.98123
442.60,67.99853
442.80,68.00053
443.00,68.00328
443.20,68.00510
443.40,67.99880
443.60,68.03041
443.80,68.02667
444.00,68.05056
444.20,68.05039
444.40,68.06123
444.60,68.02570
444.80,68.04248
445.00,68.03011
445.20,68.04417
445.40,68.04619
445.60,68.09482
445.80,68.08156
446.00,68.08543
446.20,68.09078
446.40,68.08574
446.60,68.05090
446.80,68.07461
447.00,68.07329
447.20,68.07460
447.40,68.06561
447.60,68.10183
447.80,68.09096
448.00,68.09899
448.20,68.10696
448.40,68.12027
448.60,68.11497
448.80,68.10930
449.00,68.10142
449.20,68.09066
449.40,68.08626
449.60,68.05537
449.80,68.05853
450.00,68.06309
450.20,68.07927
450.40,68.08308
450.60,68.11520
450.80,68.13223
451.00,68.11720
451.20,68.13490
451.40,68.12584
451.60,68.12088
451.80,68.13638
452.00,68.13466
452.20,68.12333
452.40,68.14733
452.60,68.15552
452.80,68.16154
453.00,68.17538
453.20,68.18494
453.40,68.17124
453.60,68.18984
453.80,68.19128
454.00,68.21330
454.20,68.20847
454.40,68.22850
454.60,68.20009
454.80,68.17992
455.00,68.17820
455.20,68.19461
455.40,68.18147
455.60,68.18272
455.80,68.19264
456.00,68.18518
456.20,68.17202
456.40,68.18675
456.60,68.21132
456.80,68.22100
457.00,68.23411
457.20,68.26289
457.40,68.25302
457.60,68.25268
457.80,68.23474
458.00,68.26628
458.20,68.28800
458.40,68.29301
458.60,68.28755
458.80,68.32461
459.00,68.29976
459.20,68.27688
459.40,68.28989
459.60,68.27967
459.80,68.27856
460.00,68.29411
460.20,68.27112
460.40,68.27940
460.60,68.28905
460.80,68.28492
461.00,68.25907
461.20,68.27916
461.40,68.27286
461.60,68.28809
461.80,68.29622
462.00,68.31478
462.20,68.30510
462.40,68.32347
462.60,68.32447
462.80,68.31466
463.00,68.32381
463.20,68.33826
463.40,68.32048
463.60,68.31074
463.80,68.33303
464.00,68.31635
464.20,68.30328
464.40,68.34824
464.60,68.36050
464.80,68.34633
465.00,68.35275
465.20,68.35510
465.40,68.30591
465.60,68.32291
465.80,68.32191
466.00,68.32991
466.20,68.34548
466.40,68.36471
466.60,68.37712
466.80,68.39252
467.00,68.40885
467.20,68.40426
467.40,68.40218
467.60,68.42058
467.80,68.41328
468.00,68.42197
468.20,68.43550
468.40,68.45052
468.60,68.42647
468.80,68.43749
469.00,68.44987
469.20,68.42898
469.40,68.41758
469.60,68.41213
469.80,68.38447
470.00,68.35799
470.20,68.39679
470.40,68.38912
470.60,68.37683
470.80,68.40398
471.00,68.41297
471.20,68.37525
471.40,68.39475
471.60,68.39889
471.80,68.39706
472.00,68.40357
472.20,68.39960
472.40,68.40634
472.60,68.43927
472.80,68.43855
473.00,68.43626
473.20,68.46281
473.40,68.45204
473.60,68.43595
473.80,68.43927
474.00,68.44909
474.20,68.42802
474.40,68.42513
474.60,68.40284
474.80,68.41425
475.00,68.40139
475.20,68.41581
475.40,68.42667
475.60,68.46232
475.80,68.46578
476.00,68.46856
476.20,68.47606
476.40,68.49341
476.60,68.49312
476.80,68.45359
477.00,68.44912
477.20,68.45291
477.40,68.43302
477.60,68.43373
477.80,68.46804
478.00,68.48384
478.20,68.47850
478.40,68.48682
478.60,68.48439
478.80,68.48765
479.00,68.47433
479.20,68.48142
479.40,68.49216
479.60,68.48845
479.80,68.49194
480.00,68.50624
480.20,68.50855
480.40,68.49246
480.60,68.49852
480.80,68.49872
481.00,68.49955
481.20,68.51216
481.40,68.53228
481.60,68.52545
481.80,68.51107
482.00,68.52171
482.20,68.50482
482.40,68.49811
482.60,68.49362
482.80,68.52885
483.00,68.52733
483.20,68.53922
483.40,68.55640
483.60,68.59006
483.80,68.58302
484.00,68.59103
484.20,68.58828
484.40,68.56983
484.60,68.55415
484.80,68.55235
485.00,68.55213
485.20,68.55720
485.40,68.55745
485.60,68.56209
485.80,68.56457
486.00,68.55485
486.20,68.55167
486.40,68.56844
486.60,68.54550
486.80,68.53541
487.00,68.52605
487.20,68.52510
487.40,68.51736
487.60,68.54273
487.80,68.54818
488.00,68.54225
488.20,68.55005
488.40,68.55701
488.60,68.55818
488.80,68.54935
489.00,68.54896
489.20,68.55168
489.40,68.54924
489.60,68.54902
489.80,68.53472
490.00,68.57191
490.20,68.56171
490.40,68.56560
490.60,68.56847
490.80,68.60295
491.00,68.59728
491.20,68.61465
491.40,68.62463
491.60,68.60930
491.80,68.62529
492.00,68.62864
492.20,68.63967
492.40,68.64220
492.60,68.66804
492.80,68.64626
493.00,68.62931
493.20,68.60537
493.40,68.59190
493.60,68.58158
493.80,68.58738
494.00,68.59136
494.20,68.61363
494.40,68.61677
494.60,68.63024
494.80,68.63397
495.00,68.65340
495.20,68.65280
495.40,68.66332
495.60,68.63504
495.80,68.61922
496.00,68.59845
496.20,68.58745
496.40,68.58539
496.60,68.61698
496.80,68.64348
497.00,68.63670
497.20,68.63724
497.40,68.62333
497.60,68.62295
497.80,68.60995
498.00,68.61237
498.20,68.58667
498.40,68.60028
498.60,68.59407
498.80,68.59509
499.00,68.58709
499.20,68.62274
499.40,68.62520
499.60,68.60433
499.80,68.60667
500.00,68.60730
500.20,68.60787
500.40,68.59633
500.60,68.59663
500.80,68.61891
501.00,68.64573
501.20,68.63858
501.40,68.63120
501.60,68.66814
501.80,68.65289
502.00,68.65938
502.20,68.66040
502.40,68.69572
502.60,68.67543
502.80,68.64126
503.00,68.64480
503.20,68.64935
503.40,68.61801
503.60,68.60687
503.80,68.62928
504.00,68.59180
504.20,68.59280
504.40,68.59367
504.60,68.59624
504.80,68.61923
505.00,68.67018
505.20,68.69562
505.40,68.71185
505.60,68.72521
505.80,68.70430
506.00,68.70463
506.20,68.68009
506.40,68.67207
506.60,68.65658
506.80,68.65340
507.00,68.62499
507.20,68.61241
507.40,68.62496
507.60,68.63662
507.80,68.65104
508.00,68.63777
508.20,68.65785
508.40,68.61403
508.60,68.63604
508.80,68.61677
509.00,68.64305
509.20,68.64384
509.40,68.67558
509.60,68.68085
509.80,68.68437
510.00,68.66885
510.20,68.66121
510.40,68.68674
510.60,68.66483
510.80,68.67846
511.00,68.67509
511.20,68.67430
511.40,68.65883
511.60,68.66065
511.80,68.64809
512.00,68.64665
512.20,68.64544
512.40,68.65231
512.60,68.65093
512.80,68.65780
513.00,68.65395
513.20,68.65777
513.40,68.64900
513.60,68.65969
513.80,68.66658
514.00,68.70458
514.20,68.71872
514.40,68.73090
514.60,68.73586
514.80,68.69464
515.00,68.67376
515.20,68.66598
515.40,68.64144
515.60,68.64551
515.80,68.69305
516.00,68.69212
516.20,68.70494
516.40,68.70457
516.60,68.69915
516.80,68.67692
517.00,68.66627
517.20,68.63150
517.40,68.64960
517.60,68.66079
517.80,68.66619
518.00,68.68667
518.20,68.72284
518.40,68.72645
518.60,68.71414
518.80,68.74518
519.00,68.76436
519.20,68.74511
519.40,68.72976
519.60,68.71659
519.80,68.69869
520.00,68.66868
520.20,68.66224
520.40,68.67447
520.60,68.70793
520.80,68.70260
521.00,68.71029
521.20,68.71419
521.40,68.70802
521.60,68.68392
521.80,68.67412
522.00,68.69828
522.20,68.70299
522.40,68.69179
522.60,68.66580
522.80,68.69005
523.00,68.67583
523.20,68.68755
523.40,68.69044
523.60,68.71586
523.80,68.69951
524.00,68.69869
524.20,68.68069
524.40,68.69341
524.60,68.69967
524.80,68.69038
525.00,68.70285
525.20,68.71850
525.40,68.73512
525.60,68.72091
525.80,68.74697
526.00,68.72002
526.20,68.72174
526.40,68.71208
526.60,68.71327
526.80,68.69466
527.00,68.69133
527.20,68.68755
527.40,68.65968
527.60,68.65735
527.80,68.66931
528.00,68.66991
528.20,68.68246
528.40,68.68065
528.60,68.67164
528.80,68.67534
529.00,68.65559
529.20,68.63106
529.40,68.67174
529.60,68.68585
529.80,68.68882
530.00,68.71543
530.20,68.74393
530.40,68.73463
530.60,68.73789
530.80,68.71133
531.00,68.72765
531.20,68.73299
531.40,68.72690
531.60,68.71266
531.80,68.73537
532.00,68.73916
532.20,68.74167
532.40,68.74583
532.60,68.75875
532.80,68.76045
533.00,68.74501
533.20,68.72249
533.40,68.70741
533.60,68.73433
533.80,68.73454
534.00,68.72823
534.20,68.75098
534.40,68.76560
534.60,68.76619
534.80,68.77586
535.00,68.78738
535.20,68.76907
535.40,68.76020
535.60,68.77790
535.80,68.78101
536.00,68.78992
536.20,68.81563
536.40,68.82600
536.60,68.80090
536.80,68.80453
537.00,68.81851
537.20,68.80722
537.40,68.80785
537.60,68.81166
537.80,68.78523
538.00,68.78976
538.20,68.79844
538.40,68.80652
538.60,68.81777
538.80,68.84406
539.00,68.82592
539.20,68.78955
539.40,68.79054
539.60,68.76287
539.80,68.76564
540.00,68.77829
540.20,68.82265
540.40,68.83094
540.60,68.85374
540.80,68.87246
541.00,68.87102
541.20,68.87209
541.40,68.85098
541.60,68.84390
541.80,68.82144
542.00,68.80452
542.20,68.78600
542.40,68.79280
542.60,68.79323
542.80,68.80752
543.00,68.80925
543.20,68.82088
543.40,68.83488
543.60,68.84374
543.80,68.81089
544.00,68.84165
544.20,68.82446
544.40,68.80897
544.60,68.80109
544.80,68.79225
545.00,68.77573
545.20,68.76668
545.40,68.76689
545.60,68.77676
545.80,68.79253
546.00,68.79203
546.20,68.79201
546.40,68.80202
546.60,68.78523
546.80,68.78269
547.00,68.76316
547.20,68.77022
547.40,68.76342
547.60,68.78220
547.80,68.79995
548.00,68.82769
548.20,68.84224
548.40,68.84474
548.60,68.83137
548.80,68.84172
549.00,68.85226
549.20,68.85578
549.40,68.86721
549.60,68.87447
549.80,68.87621
550.00,68.86255
550.20,68.85853
550.40,68.85998
550.60,68.85538
550.80,68.85170
551.00,68.84773
551.20,68.85191
551.40,68.83406
551.60,68.83267
551.80,68.83095
552.00,68.84422
552.20,68.84999
552.40,68.87160
552.60,68.87587
552.80,68.86746
553.00,68.84809
553.20,68.84429
553.40,68.83978
553.60,68.83425
553.80,68.84862
554.00,68.86493
554.20,68.87269
554.40,68.87119
554.60,68.87175
554.80,68.87863
555.00,68.87776
555.20,68.87528
555.40,68.88745
555.60,68.90309
555.80,68.89897
556.00,68.88717
556.20,68.87573
556.40,68.87199
556.60,68.87031
556.80,68.84676
557.00,68.86418
557.20,68.87393
557.40,68.85855
557.60,68.86689
557.80,68.86499
558.00,68.83910
558.20,68.82633
558.40,68.84158
558.60,68.82610
558.80,68.85741
559.00,68.88865
559.20,68.91596
559.40,68.91589
559.60,68.95646
559.80,68.94746
560.00,68.95307
560.20,68.93049
560.40,68.91859
560.60,68.87120
560.80,68.85746
561.00,68.84499
561.20,68.84989
561.40,68.86910
561.60,68.86580
561.80,68.88084
562.00,68.87630
562.20,68.87426
562.40,68.89452
562.60,68.88315
562.80,68.87883
563.00,68.88309
563.20,68.89641
563.40,68.86446
563.60,68.90237
563.80,68.91282
564.00,68.90583
564.20,68.90505
564.40,68.89430
564.60,68.89471
564.80,68.87795
565.00,68.88959
565.20,68.87988
565.40,68.89924
565.60,68.88239
565.80,68.89834
566.00,68.89588
566.20,68.92264
566.40,68.92491
566.60,68.94221
566.80,68.94143
567.00,68.93656
567.20,68.91673
567.40,68.89619
567.60,68.89175
567.80,68.90013
568.00,68.90095
568.20,68.89783
568.40,68.91791
568.60,68.91000
568.80,68.90210
569.00,68.90449
569.20,68.89761
569.40,68.90818
569.60,68.92499
569.80,68.90883
570.00,68.91131
570.20,68.92567
570.40,68.90763
570.60,68.88531
570.80,68.88173
571.00,68.89403
571.20,68.89842
571.40,68.92012
571.60,68.94433
571.80,68.94475
572.00,68.92438
572.20,68.93607
572.40,68.93995
572.60,68.93854
572.80,68.94090
573.00,68.96760
573.20,68.95100
573.40,68.93994
573.60,68.93610
573.80,68.96742
574.00,68.94655
574.20,68.95819
574.40,68.98529
574.60,69.00029
574.80,68.99686
575.00,69.02161
575.20,69.02797
575.40,69.00227
575.60,68.98918
575.80,68.98952
576.00,68.97893
576.20,68.97169
576.40,68.97019
576.60,68.96194
576.80,68.96152
577.00,68.97200
577.20,68.98400
577.40,68.97886
577.60,68.98401
577.80,69.00643
578.00,69.01565
578.20,69.01504
578.40,69.03031
578.60,69.05746
578.80,69.03441
579.00,69.03780
579.20,69.01795
579.40,69.01569
579.60,68.99263
579.80,69.01558
580.00,69.00940
580.20,69.04185
580.40,69.04035
580.60,69.05926
580.80,69.03014
581.00,69.02044
581.20,68.99950
581.40,69.01491
581.60,69.01289
581.80,69.03526
582.00,69.06553
582.20,69.09081
582.40,69.08284
582.60,69.07970
582.80,69.06487
583.00,69.06086
583.20,69.03051
583.40,69.03428
583.60,69.04514
583.80,69.08677
584.00,69.07599
584.20,69.10806
584.40,69.11106
584.60,69.12428
584.80,69.10565
585.00,69.10059
585.20,69.12188
585.40,69.13276
585.60,69.12592
585.80,69.12337
586.00,69.12999
586.20,69.11400
586.40,69.11104
586.60,69.10024
586.80,69.08424
587.00,69.08287
587.20,69.07777
587.40,69.10087
587.60,69.10664
587.80,69.13269
588.00,69.15033
588.20,69.13878
588.40,69.12018
588.60,69.14150
588.80,69.14335
589.00,69.13237
589.20,69.15455
589.40,69.16627
589.60,69.16431
589.80,69.16274
590.00,69.17831
590.20,69.15968
590.40,69.16634
590.60,69.15984
590.80,69.15313
591.00,69.18321
591.20,69.18681
591.40,69.17918
591.60,69.18032
591.80,69.20675
592.00,69.16555
592.20,69.18365
592.40,69.17824
592.60,69.16429
592.80,69.16735
593.00,69.17337
593.20,69.16197
593.40,69.16432
593.60,69.18004
593.80,69.19172
594.00,69.17675
594.20,69.18324
594.40,69.19615
594.60,69.22141
594.80,69.19314
595.00,69.22752
595.20,69.24300
595.40,69.24524
595.60,69.23376
595.80,69.24605
596.00,69.25533
596.20,69.26122
596.40,69.26546
596.60,69.26203
596.80,69.25768
597.00,69.22969
597.20,69.21248
597.40,69.21163
597.60,69.22582
597.80,69.23346
598.00,69.25932
598.20,69.26217
598.40,69.27356
598.60,69.28648
598.80,69.30513
599.00,69.28907
599.20,69.28164
599.40,69.27582
599.60,69.27235
599.80,69.25442
600.00,69.26392
600.20,69.29438
600.40,69.30475
600.60,69.28577
600.80,69.29645
601.00,69.30788
601.20,69.30814
601.40,69.30823
601.60,69.30926
601.80,69.29368
602.00,69.28098
602.20,69.26939
602.40,69.26235
602.60,69.29131
602.80,69.29790
603.00,69.32725
603.20,69.34046
603.40,69.35120
603.60,69.34965
603.80,69.36035
604.00,69.33779
604.20,69.34196
604.40,69.32765
604.60,69.32347
604.80,69.30562
605.00,69.32947
605.20,69.32210
605.40,69.33655
605.60,69.32397
605.80,69.36041
606.00,69.35710
606.20,69.36002
606.40,69.35003
606.60,69.36830
606.80,69.34735
607.00,69.32389
607.20,69.33752
607.40,69.34962
607.60,69.33517
607.80,69.34348
608.00,69.33858
608.20,69.32164
608.40,69.33831
608.60,69.35728
608.80,69.37193
609.00,69.41355
609.20,69.42560
609.40,69.41475
609.60,69.41593
609.80,69.40593
610.00,69.39703
610.20,69.39705
610.40,69.39161
610.60,69.36242
610.80,69.38662
611.00,69.38087
611.20,69.39136
611.40,69.41445
611.60,69.44706
611.80,69.41959
612.00,69.42598
612.20,69.42369
612.40,69.41979
612.60,69.40981
612.80,69.43315
613.00,69.45378
613.20,69.42186
613.40,69.43572
613.60,69.45085
613.80,69.42424
614.00,69.40678
614.20,69.44928
614.40,69.42077
614.60,69.42930
614.80,69.46503
615.00,69.46472
615.20,69.47136
615.40,69.46644
615.60,69.44343
615.80,69.43951
616.00,69.43520
616.20,69.43622
616.40,69.44082
616.60,69.45937
616.80,69.43176
617.00,69.44476
617.20,69.42836
617.40,69.45258
617.60,69.43579
617.80,69.44826
618.00,69.45215
618.20,69.45973
618.40,69.45186
618.60,69.45700
618.80,69.47002
619.00,69.47405
619.20,69.49209
619.40,69.50797
619.60,69.51567
619.80,69.49649
620.00,69.48766
620.20,69.46855
620.40,69.46905
620.60,69.47765
620.80,69.50808
621.00,69.50850
621.20,69.52217
621.40,69.50645
621.60,69.49369
621.80,69.47752
622.00,69.46950
622.20,69.45395
622.40,69.46425
622.60,69.46321
622.80,69.48203
623.00,69.50929
623.20,69.53740
623.40,69.53315
623.60,69.55716
623.80,69.55676
624.00,69.55539
624.20,69.54207
624.40,69.55153
624.60,69.56631
624.80,69.55636
625.00,69.53612
625.20,69.54380
625.40,69.54869
625.60,69.53880
625.80,69.57188
626.00,69.60750
626.20,69.59373
626.40,69.60270
626.60,69.59502
626.80,69.60665
627.00,69.57506
627.20,69.58713
627.40,69.58553
627.60,69.61821
627.80,69.58771
628.00,69.59999
628.20,69.60704
628.40,69.62978
628.60,69.63580
628.80,69.63638
629.00,69.64114
629.20,69.64262
629.40,69.63652
629.60,69.60651
629.80,69.64225
630.00,69.66262
630.20,69.66335
630.40,69.63053
630.60,69.64427
630.80,69.61781
631.00,69.60210
631.20,69.61414
631.40,69.62804
631.60,69.64262
631.80,69.65674
632.00,69.66055
632.20,69.66541
632.40,69.67381
632.60,69.65622
632.80,69.64132
633.00,69.65326
633.20,69.66000
633.40,69.66892
633.60,69.64589
633.80,69.68161
634.00,69.69079
634.20,69.67219
634.40,69.69475
634.60,69.73937
634.80,69.72575
635.00,69.74896
635.20,69.76495
635.40,69.76368
635.60,69.75852
635.80,69.77153
636.00,69.76515
636.20,69.77766
636.40,69.80199
636.60,69.77986
636.80,69.76261
637.00,69.76525
637.20,69.77384
637.40,69.76353
637.60,69.81515
637.80,69.81385
638.00,69.79533
638.20,69.82577
638.40,69.84239
638.60,69.80109
638.80,69.83120
639.00,69.84546
639.20,69.83367
639.40,69.80967
639.60,69.84332
639.80,69.83482
640.00,69.83370
640.20,69.82036
640.40,69.81056
640.60,69.80996
640.80,69.80317
641.00,69.80409
641.20,69.80250
641.40,69.80076
641.60,69.81077
641.80,69.81480
642.00,69.84673
642.20,69.85962
642.40,69.87711
642.60,69.88480
642.80,69.90395
643.00,69.88362
643.20,69.89978
643.40,69.91202
643.60,69.93266
643.80,69.93776
644.00,69.95426
644.20,69.94625
644.40,69.93272
644.60,69.91912
644.80,69.90996
645.00,69.92204
645.20,69.92352
645.40,69.94069
645.60,69.92631
645.80,69.93013
646.00,69.91991
646.20,69.91276
646.40,69.92185
646.60,69.93403
646.80,69.98847
647.00,69.98969
647.20,69.98997
647.40,70.00774
647.60,70.01684
647.80,69.99658
648.00,70.01721
648.20,70.02421
648.40,70.01811
648.60,69.99539
648.80,69.97297
649.00,69.99336
649.20,70.04077
649.40,70.05715
649.60,70.08495
649.80,70.09408
650.00,70.07161
650.20,70.02929
650.40,70.01980
650.60,70.05076
650.80,70.08076
651.00,70.08246
651.20,70.09727
651.40,70.11547
651.60,70.11943
651.80,70.08729
652.00,70.11430
652.20,70.10956
652.40,70.11517
652.60,70.10370
652.80,70.14797
653.00,70.15354
653.20,70.14773
653.40,70.12771
653.60,70.11616
653.80,70.08703
654.00,70.06585
654.20,70.11686
654.40,70.14512
654.60,70.13924
654.80,70.15662
655.00,70.15147
655.20,70.14979
655.40,70.16457
655.60,70.21285
655.80,70.19580
656.00,70.19371
656.20,70.17317
656.40,70.17723
656.60,70.18498
656.80,70.24597
657.00,70.27940
657.20,70.27103
657.40,70.25171
657.60,70.23497
657.80,70.21061
658.00,70.22648
658.20,70.27514
658.40,70.28327
658.60,70.28977
658.80,70.30699
659.00,70.29840
659.20,70.27286
659.40,70.29702
659.60,70.27985
659.80,70.27010
660.00,70.27382
660.20,70.29359
660.40,70.26839
660.60,70.28955
660.80,70.29430
661.00,70.28545
661.20,70.27318
661.40,70.28177
661.60,70.29577
661.80,70.31748
662.00,70.35087
662.20,70.36152
662.40,70.36052
662.60,70.37767
662.80,70.38961
663.00,70.38645
663.20,70.39108
663.40,70.41208
663.60,70.41171
663.80,70.41509
664.00,70.42158
664.20,70.45920
664.40,70.46909
664.60,70.48601
664.80,70.47443
665.00,70.47074
665.20,70.45467
665.40,70.44503
665.60,70.43077
665.80,70.44400
666.00,70.47595
666.20,70.48402
666.40,70.50461
666.60,70.51665
666.80,70.53046
667.00,70.49080
667.20,70.51924
667.40,70.54549
667.60,70.57790
667.80,70.55567
668.00,70.58281
668.20,70.59025
668.40,70.60831
668.60,70.60527
668.80,70.64256
669.00,70.67070
669.20,70.63963
669.40,70.60060
669.60,70.61017
669.80,70.60360
670.00,70.59265
670.20,70.64716
670.40,70.68188
670.60,70.67686
670.80,70.71174
671.00,70.75069
671.20,70.73497
671.40,70.72808
671.60,70.72531
671.80,70.72075
672.00,70.71277
672.20,70.73827
672.40,70.75165
672.60,70.79778
672.80,70.77825
673.00,70.76747
673.20,70.73294
673.40,70.72690
673.60,70.71509
673.80,70.76178
674.00,70.78350
674.20,70.83939
674.40,70.85479
674.60,70.86024
674.80,70.87007
675.00,70.85822
675.20,70.84768
675.40,70.88865
675.60,70.88397
675.80,70.92302
676.00,70.97716
676.20,70.97573
676.40,70.96476
676.60,70.97378
676.80,70.92076
677.00,70.92534
677.20,70.99056
677.40,70.99844
677.60,71.01244
677.80,71.03291
678.00,71.00623
678.20,70.97418
678.40,70.96466
678.60,71.00410
678.80,71.02697
679.00,71.06141
679.20,71.10199
679.40,71.16721
679.60,71.15474
679.80,71.18407
680.00,71.22809
680.20,71.19762
680.40,71.17462
680.60,71.19844
680.80,71.17252
681.00,71.13484
681.20,71.13683
681.40,71.16821
681.60,71.19972
681.80,71.20088
682.00,71.22095
682.20,71.26634
682.40,71.26597
682.60,71.23732
682.80,71.28437
683.00,71.31114
683.20,71.29776
683.40,71.32046
683.60,71.37888
683.80,71.38531
684.00,71.37904
684.20,71.40571
684.40,71.41836
684.60,71.45490
684.80,71.48419
685.00,71.50779
685.20,71.51437
685.40,71.51542
685.60,71.48072
685.80,71.49082
686.00,71.47301
686.20,71.52506
686.40,71.55261
686.60,71.56378
686.80,71.58388
687.00,71.63035
687.20,71.62716
687.40,71.64315
687.60,71.64998
687.80,71.66972
688.00,71.69585
688.20,71.73080
688.40,71.70137
688.60,71.70647
688.80,71.66902
689.00,71.71260
689.20,71.70944
689.40,71.77691
689.60,71.78930
689.80,71.86453
690.00,71.84361
690.20,71.84536
690.40,71.85015
690.60,71.88916
690.80,71.89234
691.00,71.91217
691.20,71.95389
691.40,71.95961
691.60,71.96272
691.80,72.00379
692.00,72.02756
692.20,72.04295
692.40,72.06078
692.60,72.08834
692.80,72.04463
693.00,72.07212
693.20,72.04803
693.40,72.08109
693.60,72.11069
693.80,72.17792
694.00,72.18642
694.20,72.22713
694.40,72.21885
694.60,72.23996
694.80,72.23693
695.00,72.26146
695.20,72.24705
695.40,72.29307
695.60,72.27119
695.80,72.26017
696.00,72.29583
696.20,72.37316
696.40,72.39706
696.60,72.45982
696.80,72.47862
697.00,72.45467
697.20,72.49628
697.40,72.50033
697.60,72.51069
697.80,72.54962
698.00,72.58939
698.20,72.55969
698.40,72.54184
698.60,72.54336
698.80,72.59153
699.00,72.59190
699.20,72.61857
699.40,72.66588
699.60,72.65471
699.80,72.66968
700.00,72.67938
700.20,72.69901
700.40,72.71631
700.60,72.77227
700.80,72.76443
701.00,72.82685
701.20,72.81806
701.40,72.81960
701.60,72.78205
701.80,72.76170
702.00,72.69529
702.20,72.71913
702.40,72.78121
702.60,72.84089
702.80,72.89723
703.00,72.96303
703.20,72.97844
703.40,72.97215
703.60,72.98379
703.80,73.00488
704.00,73.04519
704.20,73.03104
704.40,73.04538
704.60,73.12556
704.80,73.15535
705.00,73.12194
705.20,73.17879
705.40,73.19067
705.60,73.12055
705.80,73.08372
706.00,73.11143
706.20,73.14982
706.40,73.17586
706.60,73.21962
706.80,73.27663
707.00,73.31425
707.20,73.31325
707.40,73.32601
707.60,73.36053
707.80,73.36875
708.00,73.36232
708.20,73.33657
708.40,73.31699
708.60,73.31100
708.80,73.29336
709.00,73.29949
709.20,73.33781
709.40,73.39252
709.60,73.38434
709.80,73.43554
710.00,73.47170
710.20,73.47170
710.40,73.47017
710.60,73.49747
710.80,73.49339
711.00,73.53508
711.20,73.55508
711.40,73.55308
711.60,73.62736
711.80,73.65164
712.00,73.64398
712.20,73.65843
712.40,73.67234
712.60,73.66551
712.80,73.65842
713.00,73.64771
713.20,73.62759
713.40,73.68423
713.60,73.68724
713.80,73.71758
714.00,73.77194
714.20,73.81975
714.40,73.76180
714.60,73.82652
714.80,73.82793
715.00,73.83183
715.20,73.87093
715.40,73.89075
715.60,73.89168
715.80,73.88077
716.00,73.86000
716.20,73.84038
716.40,73.87395
716.60,73.84585
716.80,73.91524
717.00,73.95737
717.20,73.98427
717.40,73.96939
717.60,73.97031
717.80,73.92445
718.00,73.94457
718.20,73.95443
718.40,74.01963
718.60,74.00798
718.80,74.06201
719.00,74.10271
719.20,74.10731
719.40,74.06286
719.60,74.03212
719.80,73.99474
720.00,73.93719
720.20,73.97519
720.40,74.02135
720.60,74.01268
720.80,74.03674
721.00,74.14740
721.20,74.14937
721.40,74.16080
721.60,74.26621
721.80,74.28731
722.00,74.22583
722.20,74.17171
722.40,74.17455
722.60,74.17178
722.80,74.20583
723.00,74.22102
723.20,74.29736
723.40,74.29859
723.60,74.37751
723.80,74.36626
724.00,74.35557
724.20,74.37865
724.40,74.39331
724.60,74.32411
724.80,74.33984
725.00,74.40145
725.20,74.39470
725.40,74.44063
725.60,74.45982
725.80,74.49654
726.00,74.41685
726.20,74.43507
726.40,74.37106
726.60,74.36305
726.80,74.31695
727.00,74.37488
727.20,74.33423
727.40,74.40479
727.60,74.42466
727.80,74.42825
728.00,74.42762
728.20,74.47016
728.40,74.46377
728.60,74.45039
728.80,74.51228
729.00,74.54300
729.20,74.57001
729.40,74.58873
729.60,74.61696
729.80,74.59865
730.00,74.55583
730.20,74.48280
730.40,74.44772
730.60,74.46723
730.80,74.51222
731.00,74.54784
731.20,74.55303
731.40,74.58335
731.60,74.61869
731.80,74.63406
732.00,74.66338
732.20,74.72298
732.40,74.78376
732.60,74.77081
732.80,74.76586
733.00,74.76945
733.20,74.77141
733.40,74.74412
733.60,74.68374
733.80,74.66217
734.00,74.63878
734.20,74.67074
734.40,74.67440
734.60,74.72021
734.80,74.72011
735.00,74.69382
735.20,74.70780
735.40,74.69144
735.60,74.72554
735.80,74.72685
736.00,74.79521
736.20,74.76978
736.40,74.78659
736.60,74.78716
736.80,74.81576
737.00,74.79686
737.20,74.86419
737.40,74.90905
737.60,74.89718
737.80,74.85392
738.00,74.87408
738.20,74.79665
738.40,74.76482
738.60,74.76744
738.80,74.81654
739.00,74.83934
739.20,74.86452
739.40,74.83628
739.60,74.83101
739.80,74.81523
740.00,74.83316
740.20,74.85436
740.40,74.88548
740.60,74.90870
740.80,74.91933
741.00,74.98367
741.20,74.96267
741.40,74.96895
741.60,75.00588
741.80,74.99688
742.00,74.90144
742.20,74.89043
742.40,74.85909
742.60,74.79261
742.80,74.83768
743.00,74.86177
743.20,74.87706
743.40,74.89147
743.60,74.96095
743.80,74.98580
744.00,74.97509
744.20,74.97296
744.40,75.03023
744.60,75.04368
744.80,74.97343
745.00,74.95142
745.20,74.96071
745.40,75.00407
745.60,74.95864
745.80,74.94521
746.00,74.91330
746.20,74.90206
746.40,74.86268
746.60,74.88859
746.80,74.96970
747.00,74.98220
747.20,74.99579
747.40,74.95144
747.60,74.94115
747.80,74.90566
748.00,74.98705
748.20,75.04277
748.40,75.09834
748.60,75.10216
748.80,75.05782
749.00,75.02788
749.20,74.99330
749.40,74.98524
749.60,75.00141
749.80,75.01811
750.00,75.02760
750.20,75.05393
750.40,75.03411
750.60,75.01403
750.80,74.97630
751.00,74.91640
751.20,74.93558
751.40,74.96903
751.60,74.99088
751.80,75.08992
752.00,75.18330
752.20,75.14678
752.40,75.06366
752.60,75.04555
752.80,75.04659
753.00,75.04517
753.20,75.04846
753.40,75.14836
753.60,75.16370
753.80,75.17081
754.00,75.09894
754.20,75.13496
754.40,75.09927
754.60,75.12615
754.80,75.12816
755.00,75.14797
755.20,75.12745
755.40,75.12783
755.60,75.09774
755.80,75.11517
756.00,75.15129
756.20,75.12290
756.40,75.11556
756.60,75.08522
756.80,75.05558
757.00,75.03636
757.20,75.09098
757.40,75.09795
757.60,75.11321
757.80,75.13447
758.00,75.15044
758.20,75.13676
758.40,75.15379
758.60,75.19790
758.80,75.18066
759.00,75.25553
759.20,75.30373
759.40,75.37065
759.60,75.39461
759.80,75.41838
760.00,75.29144
760.20,75.26360
760.40,75.21293
760.60,75.14523
760.80,75.06455
761.00,75.04039
761.20,75.00618
761.40,74.96449
761.60,74.99142
761.80,75.09965
762.00,75.26839
762.20,75.29982
762.40,75.27273
762.60,75.25417
762.80,75.17926
763.00,75.03000
763.20,75.05503
763.40,75.16621
763.60,75.25319
763.80,75.28391
764.00,75.39195
764.20,75.33934
764.40,75.29741
764.60,75.26975
764.80,75.28591
765.00,75.26623
765.20,75.24981
765.40,75.25628
765.60,75.15978
765.80,75.21718
766.00,75.20163
766.20,75.22201
766.40,75.23924
766.60,75.26171
766.80,75.15748
767.00,75.18147
767.20,75.26529
767.40,75.21960
767.60,75.35055
767.80,75.36653
768.00,75.45040
768.20,75.34076
768.40,75.41190
768.60,75.31754
768.80,75.43003
769.00,75.32616
769.20,75.37110
769.40,75.33391
769.60,75.32680
769.80,75.27769
770.00,75.23424
770.20,75.18632
770.40,75.12395
770.60,75.19317
770.80,75.14095
771.00,75.21007
771.20,75.25127
771.40,75.28527
771.60,75.32814
771.80,75.34773
772.00,75.33092
772.20,75.32449
772.40,75.36228
772.60,75.31504
772.80,75.29849
773.00,75.30280
773.20,75.29448
773.40,75.28287
773.60,75.22261
773.80,75.29888
774.00,75.30649
774.20,75.30362
774.40,75.32089
774.60,75.29962
774.80,75.18631
775.00,75.10875
775.20,75.19127
775.40,75.21588
775.60,75.26923
775.80,75.36524
776.00,75.47066
776.20,75.41935
776.40,75.31589
776.60,75.31177
776.80,75.28499
777.00,75.26842
777.20,75.30786
777.40,75.38061
777.60,75.40324
777.80,75.41332
778.00,75.43138
778.20,75.42427
778.40,75.38024
778.60,75.37779
778.80,75.44498
779.00,75.39754
779.20,75.32936
779.40,75.43498
779.60,75.40491
779.80,75.28372
780.00,75.29672
780.20,75.30190
780.40,75.24174
780.60,75.28940
780.80,75.34883
781.00,75.40402
781.20,75.37501
781.40,75.29976
781.60,75.33433
781.80,75.36191
782.00,75.33842
782.20,75.43352
782.40,75.53186
782.60,75.53098
782.80,75.45552
783.00,75.46364
783.20,75.41588
783.40,75.42137
783.60,75.39775
783.80,75.42191
784.00,75.49090
784.20,75.68861
784.40,75.69776
784.60,75.60921
784.80,75.61593
785.00,75.55996
785.20,75.37048
785.40,75.37422
785.60,75.45680
785.80,75.40523
786.00,75.37542
786.20,75.39714
786.40,75.35380
786.60,75.33574
786.80,75.41167
787.00,75.41260
787.20,75.45425
787.40,75.44164
787.60,75.48016
787.80,75.40691
788.00,75.36662
788.20,75.34755
788.40,75.41104
788.60,75.45370
788.80,75.54389
789.00,75.58811
789.20,75.52582
789.40,75.40338
789.60,75.35697
789.80,75.39681
790.00,75.39359
790.20,75.44951
790.40,75.52594
790.60,75.54103
790.80,75.53293
791.00,75.54874
791.20,75.54646
791.40,75.55422
791.60,75.59187
791.80,75.52354
792.00,75.49568
792.20,75.60167
792.40,75.50732
792.60,75.43610
792.80,75.44399
793.00,75.42330
793.20,75.32833
793.40,75.50096
793.60,75.51353
793.80,75.52506
794.00,75.65266
794.20,75.65367
794.40,75.62051
794.60,75.61217
794.80,75.54054
795.00,75.54052
795.20,75.58239
795.40,75.58678
795.60,75.60163
795.80,75.69212
796.00,75.72377
796.20,75.73476
796.40,75.74593
796.60,75.71196
796.80,75.69605
797.00,75.64499
797.20,75.60518
797.40,75.47963
797.60,75.44031
797.80,75.54326
798.00,75.43111
798.20,75.40181
798.40,75.45902
798.60,75.54967
798.80,75.49168
799.00,75.49477
799.20,75.39341
799.40,75.40384
799.60,75.40355
799.80,75.40356
800.00,75.48262
