"SamplMN1534SlowHiResResin - RawData"
"Wavelength nm.","T%"
200.00,0.25723
200.20,0.24397
200.40,0.23003
200.60,0.24124
200.80,0.21479
201.00,0.18862
201.20,0.21101
201.40,0.20999
201.60,0.18922
201.80,0.22587
202.00,0.24815
202.20,0.19521
202.40,0.20455
202.60,0.19490
202.80,0.21778
203.00,0.18708
203.20,0.23989
203.40,0.21063
203.60,0.21187
203.80,0.18968
204.00,0.18439
204.20,0.14969
204.40,0.14951
204.60,0.14149
204.80,0.12886
205.00,0.14751
205.20,0.15801
205.40,0.16025
205.60,0.16165
205.80,0.16236
206.00,0.14460
206.20,0.12729
206.40,0.13169
206.60,0.12135
206.80,0.11796
207.00,0.12208
207.20,0.10534
207.40,0.09735
207.60,0.09247
207.80,0.10131
208.00,0.09693
208.20,0.10092
208.40,0.10373
208.60,0.10691
208.80,0.09932
209.00,0.09312
209.20,0.09902
209.40,0.08934
209.60,0.07973
209.80,0.07732
210.00,0.08023
210.20,0.08008
210.40,0.08908
210.60,0.10345
210.80,0.09752
211.00,0.10428
211.20,0.10998
211.40,0.10653
211.60,0.09347
211.80,0.10105
212.00,0.10121
212.20,0.09959
212.40,0.10523
212.60,0.10779
212.80,0.10537
213.00,0.10027
213.20,0.09468
213.40,0.08337
213.60,0.08324
213.80,0.08160
214.00,0.08497
214.20,0.08866
214.40,0.09158
214.60,0.09348
214.80,0.09465
215.00,0.09136
215.20,0.09038
215.40,0.09195
215.60,0.09900
215.80,0.10387
216.00,0.10356
216.20,0.10120
216.40,0.10596
216.60,0.09768
216.80,0.09376
217.00,0.09249
217.20,0.09300
217.40,0.08570
217.60,0.08840
217.80,0.09531
218.00,0.09951
218.20,0.09774
218.40,0.09849
218.60,0.10045
218.80,0.09981
219.00,0.09470
219.20,0.09412
219.40,0.09353
219.60,0.09249
219.80,0.08931
220.00,0.08746
220.20,0.08505
220.40,0.08227
220.60,0.08071
220.80,0.07899
221.00,0.08398
221.20,0.09258
221.40,0.09088
221.60,0.09458
221.80,0.09897
222.00,0.09947
222.20,0.09870
222.40,0.10061
222.60,0.09522
222.80,0.08820
223.00,0.08822
223.20,0.09045
223.40,0.09039
223.60,0.09202
223.80,0.09615
224.00,0.09339
224.20,0.09365
224.40,0.10097
224.60,0.10363
224.80,0.10412
225.00,0.10768
225.20,0.11105
225.40,0.11096
225.60,0.10907
225.80,0.10688
226.00,0.11227
226.20,0.10946
226.40,0.11340
226.60,0.12059
226.80,0.12952
227.00,0.12204
227.20,0.11924
227.40,0.12028
227.60,0.12470
227.80,0.11205
228.00,0.11873
228.20,0.11686
228.40,0.11604
228.60,0.10625
228.80,0.11703
229.00,0.12008
229.20,0.12338
229.40,0.12102
229.60,0.12396
229.80,0.12294
230.00,0.12317
230.20,0.12049
230.40,0.11393
230.60,0.12472
230.80,0.12996
231.00,0.13124
231.20,0.13346
231.40,0.14275
231.60,0.13003
231.80,0.12379
232.00,0.12256
232.20,0.12520
232.40,0.12837
232.60,0.13659
232.80,0.14574
233.00,0.15360
233.20,0.17116
233.40,0.18708
233.60,0.21323
233.80,0.23600
234.00,0.27138
234.20,0.30859
234.40,0.35928
234.60,0.40975
234.80,0.47712
235.00,0.55402
235.20,0.64981
235.40,0.77238
235.60,0.90590
235.80,1.07595
236.00,1.28205
236.20,1.50279
236.40,1.74848
236.60,2.03488
236.80,2.33844
237.00,2.69140
237.20,3.12334
237.40,3.58817
237.60,4.13779
237.80,4.72061
238.00,5.37006
238.20,6.08411
238.40,6.85997
238.60,7.66160
238.80,8.54887
239.00,9.47155
239.20,10.42735
239.40,11.42827
239.60,12.46308
239.80,13.55178
240.00,14.66367
240.20,15.83148
240.40,17.05935
240.60,18.34164
240.80,19.62559
241.00,21.00945
241.20,22.32468
241.40,23.65938
241.60,24.97518
241.80,26.25837
242.00,27.45630
242.20,28.72012
242.40,29.87590
242.60,31.10339
242.80,32.28413
243.00,33.40643
243.20,34.52096
243.40,35.60576
243.60,36.63685
243.80,37.74255
244.00,38.80894
244.20,39.85316
244.40,40.87028
244.60,41.78254
244.80,42.58972
245.00,43.36522
245.20,44.04683
245.40,44.77450
245.60,45.33286
245.80,45.87938
246.00,46.42275
246.20,46.88376
246.40,47.33834
246.60,47.89024
246.80,48.32698
247.00,48.74330
247.20,49.23896
247.40,49.64661
247.60,50.07007
247.80,50.53455
248.00,51.00254
248.20,51.44463
248.40,51.77268
248.60,52.01814
248.80,52.36430
249.00,52.64839
249.20,52.84434
249.40,53.04933
249.60,53.22492
249.80,53.32340
250.00,53.44181
250.20,53.46898
250.40,53.53723
250.60,53.59889
250.80,53.76046
251.00,53.84324
251.20,54.10265
251.40,54.38399
251.60,54.69295
251.80,54.94185
252.00,55.24207
252.20,55.45823
252.40,55.67259
252.60,55.93957
252.80,56.11489
253.00,56.22832
253.20,56.32565
253.40,56.37996
253.60,56.40355
253.80,56.38171
254.00,56.37426
254.20,56.42860
254.40,56.38874
254.60,56.35229
254.80,56.37540
255.00,56.52329
255.20,56.50098
255.40,56.66946
255.60,56.85722
255.80,57.07744
256.00,57.19798
256.20,57.41191
256.40,57.63680
256.60,57.72895
256.80,57.85522
257.00,58.00065
257.20,58.11450
257.40,58.20600
257.60,58.28966
257.80,58.31236
258.00,58.33824
258.20,58.33094
258.40,58.29962
258.60,58.37495
258.80,58.37990
259.00,58.26459
259.20,58.24480
259.40,58.21301
259.60,58.15969
259.80,58.16282
260.00,58.24913
260.20,58.33147
260.40,58.40415
260.60,58.56400
260.80,58.64675
261.00,58.82363
261.20,59.05661
261.40,59.26666
261.60,59.41138
261.80,59.64960
262.00,59.74326
262.20,59.83747
262.40,59.92607
262.60,60.03131
262.80,60.05352
263.00,60.17107
263.20,60.08618
263.40,60.08387
263.60,60.03696
263.80,60.00512
264.00,59.85820
264.20,59.80232
264.40,59.68810
264.60,59.57844
264.80,59.46862
265.00,59.45693
265.20,59.47027
265.40,59.43729
265.60,59.47132
265.80,59.57473
266.00,59.63555
266.20,59.76971
266.40,59.98832
266.60,60.15595
266.80,60.28690
267.00,60.48979
267.20,60.62034
267.40,60.72591
267.60,60.83448
267.80,60.92240
268.00,61.02424
268.20,61.10088
268.40,61.12251
268.60,61.06328
268.80,61.03042
269.00,61.02053
269.20,60.92840
269.40,60.82414
269.60,60.77458
269.80,60.65691
270.00,60.40791
270.20,60.28920
270.40,60.21239
270.60,60.08487
270.80,60.10194
271.00,60.11713
271.20,60.14369
271.40,60.18360
271.60,60.34318
271.80,60.38424
272.00,60.56010
272.20,60.72584
272.40,60.98773
272.60,61.09766
272.80,61.25618
273.00,61.31319
273.20,61.42678
273.40,61.47206
273.60,61.57505
273.80,61.76148
274.00,61.86128
274.20,61.89733
274.40,61.89385
274.60,61.96015
274.80,61.83059
275.00,61.82301
275.20,61.70504
275.40,61.51593
275.60,61.35131
275.80,61.20951
276.00,61.07103
276.20,60.98497
276.40,60.94680
276.60,60.86274
276.80,60.74007
277.00,60.67993
277.20,60.69427
277.40,60.68871
277.60,60.67906
277.80,60.82057
278.00,60.85979
278.20,60.90324
278.40,61.02788
278.60,61.27200
278.80,61.39722
279.00,61.62732
279.20,61.80328
279.40,62.00997
279.60,62.06394
279.80,62.19238
280.00,62.30755
280.20,62.43308
280.40,62.44518
280.60,62.42219
280.80,62.49365
281.00,62.38052
281.20,62.24859
281.40,62.19727
281.60,62.21976
281.80,62.03211
282.00,61.93733
282.20,61.92155
282.40,61.77652
282.60,61.59414
282.80,61.50612
283.00,61.40203
283.20,61.27688
283.40,61.17454
283.60,61.14517
283.80,61.11785
284.00,61.13446
284.20,61.13161
284.40,61.20024
284.60,61.23493
284.80,61.34800
285.00,61.49886
285.20,61.62836
285.40,61.85863
285.60,61.93321
285.80,62.09092
286.00,62.25682
286.20,62.40422
286.40,62.48532
286.60,62.75776
286.80,62.90193
287.00,63.05792
287.20,63.23213
287.40,63.38829
287.60,63.46056
287.80,63.57054
288.00,63.51460
288.20,63.44388
288.40,63.35961
288.60,63.23211
288.80,63.12341
289.00,63.03905
289.20,62.95778
289.40,62.89048
289.60,62.83237
289.80,62.80415
290.00,62.65484
290.20,62.61289
290.40,62.46253
290.60,62.33608
290.80,62.16061
291.00,62.16572
291.20,62.02767
291.40,62.01362
291.60,62.07169
291.80,62.06275
292.00,62.07179
292.20,62.21878
292.40,62.38680
292.60,62.51893
292.80,62.67458
293.00,62.89232
293.20,63.04068
293.40,63.15983
293.60,63.29285
293.80,63.46447
294.00,63.63174
294.20,63.80003
294.40,63.89424
294.60,63.96863
294.80,64.09706
295.00,64.10912
295.20,64.14177
295.40,64.23015
295.60,64.30680
295.80,64.24435
296.00,64.21707
296.20,64.13904
296.40,64.09157
296.60,64.05127
296.80,63.97309
297.00,63.91732
297.20,63.82358
297.40,63.53148
297.60,63.41326
297.80,63.27157
298.00,63.11457
298.20,62.99728
298.40,62.98017
298.60,62.77277
298.80,62.69676
299.00,62.64784
299.20,62.60024
299.40,62.61405
299.60,62.70006
299.80,62.78477
300.00,62.79353
300.20,62.88832
300.40,63.05817
300.60,63.18921
300.80,63.32303
301.00,63.55107
301.20,63.73339
301.40,63.76899
301.60,63.95276
301.80,64.10773
302.00,64.23429
302.20,64.36012
302.40,64.59686
302.60,64.64256
302.80,64.75305
303.00,64.87699
303.20,64.93257
303.40,64.87494
303.60,64.91014
303.80,64.95538
304.00,64.90999
304.20,64.89807
304.40,64.97285
304.60,64.88925
304.80,64.71663
305.00,64.62435
305.20,64.54313
305.40,64.33105
305.60,64.13316
305.80,64.00239
306.00,63.89172
306.20,63.68614
306.40,63.54504
306.60,63.58228
306.80,63.44126
307.00,63.30567
307.20,63.19779
307.40,63.12089
307.60,62.91131
307.80,62.90885
308.00,62.90437
308.20,62.90480
308.40,62.98473
308.60,63.18696
308.80,63.32005
309.00,63.32158
309.20,63.50229
309.40,63.57398
309.60,63.61812
309.80,63.73584
310.00,63.97657
310.20,64.08988
310.40,64.25744
310.60,64.49789
310.80,64.60295
311.00,64.78633
311.20,64.97858
311.40,65.10792
311.60,65.20197
311.80,65.24867
312.00,65.30020
312.20,65.41342
312.40,65.47143
312.60,65.39140
312.80,65.42922
313.00,65.40830
313.20,65.15533
313.40,65.16638
313.60,65.26756
313.80,65.21462
314.00,65.16669
314.20,65.17006
314.40,65.05266
314.60,64.83734
314.80,64.67086
315.00,64.51471
315.20,64.47493
315.40,64.34422
315.60,64.24515
315.80,64.14819
316.00,64.03052
316.20,63.77431
316.40,63.64741
316.60,63.57863
316.80,63.51069
317.00,63.45164
317.20,63.55146
317.40,63.56335
317.60,63.54999
317.80,63.67747
318.00,63.65166
318.20,63.60388
318.40,63.68974
318.60,63.80188
318.80,63.81601
319.00,64.02180
319.20,64.18528
319.40,64.29445
319.60,64.41728
319.80,64.46697
320.00,64.53676
320.20,64.82151
320.40,64.98651
320.60,65.17726
320.80,65.43541
321.00,65.61247
321.20,65.68239
321.40,65.75680
321.60,65.75326
321.80,65.90167
322.00,65.94755
322.20,65.93569
322.40,65.98601
322.60,65.97072
322.80,65.90325
323.00,65.94012
323.20,65.90578
323.40,65.97843
323.60,65.91078
323.80,65.79239
324.00,65.53700
324.20,65.39108
324.40,65.09190
324.60,65.00462
324.80,64.97934
325.00,64.94910
325.20,64.87724
325.40,64.82486
325.60,64.74820
325.80,64.56819
326.00,64.46449
326.20,64.29274
326.40,64.17590
326.60,63.97379
326.80,63.89480
327.00,63.84551
327.20,63.86180
327.40,63.83759
327.60,63.97738
327.80,63.90406
328.00,64.04412
328.20,64.12054
328.40,64.19070
328.60,64.23119
328.80,64.37300
329.00,64.34404
329.20,64.41438
329.40,64.46329
329.60,64.55141
329.80,64.68640
330.00,64.82561
330.20,64.92107
330.40,65.13690
330.60,65.29683
330.80,65.50457
331.00,65.61446
331.20,65.79453
331.40,65.88538
331.60,66.06663
331.80,66.15616
332.00,66.25894
332.20,66.41449
332.40,66.53924
332.60,66.58352
332.80,66.64239
333.00,66.74407
333.20,66.67116
333.40,66.62614
333.60,66.58622
333.80,66.50491
334.00,66.44661
334.20,66.40474
334.40,66.34750
334.60,66.22579
334.80,66.17944
335.00,66.02796
335.20,65.99419
335.40,65.90627
335.60,65.73300
335.80,65.64857
336.00,65.54517
336.20,65.37669
336.40,65.27956
336.60,65.17784
336.80,64.89871
337.00,64.80525
337.20,64.66864
337.40,64.54914
337.60,64.54027
337.80,64.52976
338.00,64.42967
338.20,64.43775
338.40,64.42694
338.60,64.44016
338.80,64.46406
339.00,64.45967
339.20,64.46077
339.40,64.46078
339.60,64.39748
339.80,64.44981
340.00,64.54676
340.20,64.65250
340.40,64.75081
340.60,64.88277
340.80,64.99795
341.00,65.15437
341.20,65.20001
341.40,65.34626
341.60,65.54503
341.80,65.72367
342.00,65.83261
342.20,66.00650
342.40,66.05957
342.60,66.24763
342.80,66.37990
343.00,66.57642
343.20,66.73473
343.40,66.82652
343.60,66.84737
343.80,66.90254
344.00,66.93380
344.20,66.99224
344.40,67.14704
344.60,67.21992
344.80,67.27949
345.00,67.34957
345.20,67.28609
345.40,67.23069
345.60,67.15767
345.80,67.10249
346.00,66.95346
346.20,66.94154
346.40,66.80792
346.60,66.71945
346.80,66.63681
347.00,66.53064
347.20,66.33296
347.40,66.23466
347.60,66.09598
347.80,65.93691
348.00,65.84463
348.20,65.78358
348.40,65.71623
348.60,65.59905
348.80,65.40483
349.00,65.26250
349.20,65.15478
349.40,65.05718
349.60,65.04158
349.80,65.08215
350.00,65.00639
350.20,64.95592
350.40,64.90663
350.60,64.75139
350.80,64.68752
351.00,64.76362
351.20,64.76905
351.40,64.83421
351.60,65.03871
351.80,65.12088
352.00,65.17908
352.20,65.23817
352.40,65.31293
352.60,65.33065
352.80,65.41077
353.00,65.49254
353.20,65.67865
353.40,65.81841
353.60,65.97418
353.80,66.13289
354.00,66.27516
354.20,66.32515
354.40,66.41771
354.60,66.49552
354.80,66.59631
355.00,66.76180
355.20,66.89461
355.40,66.98014
355.60,67.17365
355.80,67.32603
356.00,67.40240
356.20,67.57332
356.40,67.68439
356.60,67.71651
356.80,67.77347
357.00,67.77311
357.20,67.78275
357.40,67.76080
357.60,67.72683
357.80,67.70259
358.00,67.62208
358.20,67.58226
358.40,67.56184
358.60,67.52278
358.80,67.44090
359.00,67.44713
359.20,67.36515
359.40,67.26137
359.60,67.14153
359.80,67.04521
360.00,66.91832
360.20,66.79240
360.40,66.67897
360.60,66.58660
360.80,66.39401
361.00,66.23421
361.20,66.04884
361.40,65.94970
361.60,65.80487
361.80,65.79813
362.00,65.70287
362.20,65.60127
362.40,65.45284
362.60,65.39867
362.80,65.23903
363.00,65.15096
363.20,65.11770
363.40,65.11273
363.60,65.03148
363.80,64.97990
364.00,64.96921
364.20,64.97295
364.40,64.96481
364.60,64.93756
364.80,65.03326
365.00,65.08135
365.20,65.08234
365.40,65.15953
365.60,65.26359
365.80,65.29956
366.00,65.37403
366.20,65.48458
366.40,65.60299
366.60,65.75263
366.80,65.86873
367.00,66.01571
367.20,66.16352
367.40,66.26546
367.60,66.39314
367.80,66.56926
368.00,66.69041
368.20,66.83523
368.40,66.99115
368.60,67.11619
368.80,67.22302
369.00,67.34753
369.20,67.47609
369.40,67.58237
369.60,67.62183
369.80,67.71449
370.00,67.78147
370.20,67.81421
370.40,67.88305
370.60,67.94275
370.80,67.97612
371.00,67.97401
371.20,68.02846
371.40,68.04082
371.60,68.14592
371.80,68.11918
372.00,68.14535
372.20,68.08834
372.40,67.96268
372.60,67.77693
372.80,67.66753
373.00,67.54804
373.20,67.45677
373.40,67.36063
373.60,67.28853
373.80,67.23360
374.00,67.14137
374.20,67.03194
374.40,66.87046
374.60,66.76271
374.80,66.60913
375.00,66.50862
375.20,66.32749
375.40,66.24672
375.60,66.08887
375.80,65.98322
376.00,65.85619
376.20,65.81236
376.40,65.72039
376.60,65.67428
376.80,65.57653
377.00,65.48348
377.20,65.41027
377.40,65.37814
377.60,65.28811
377.80,65.28216
378.00,65.27776
378.20,65.22384
378.40,65.21547
378.60,65.25858
378.80,65.24817
379.00,65.25022
379.20,65.29036
379.40,65.32870
379.60,65.36900
379.80,65.44063
380.00,65.51935
380.20,65.58756
380.40,65.70110
380.60,65.77369
380.80,65.84330
381.00,65.94000
381.20,66.07865
381.40,66.14007
381.60,66.28066
381.80,66.41623
382.00,66.59527
382.20,66.67677
382.40,66.81255
382.60,66.96987
382.80,67.08577
383.00,67.14701
383.20,67.30562
383.40,67.39641
383.60,67.43660
383.80,67.53818
384.00,67.66914
384.20,67.77796
384.40,67.86591
384.60,67.97639
384.80,68.09324
385.00,68.11736
385.20,68.13083
385.40,68.21294
385.60,68.31276
385.80,68.34605
386.00,68.44202
386.20,68.49459
386.40,68.51059
386.60,68.47597
386.80,68.45806
387.00,68.47426
387.20,68.43354
387.40,68.41967
387.60,68.35095
387.80,68.31986
388.00,68.21036
388.20,68.15990
388.40,68.06853
388.60,68.03172
388.80,67.91055
389.00,67.82355
389.20,67.72887
389.40,67.62819
389.60,67.51311
389.80,67.38394
390.00,67.25938
390.20,67.11091
390.40,66.97150
390.60,66.81024
390.80,66.70865
391.00,66.58186
391.20,66.48446
391.40,66.38696
391.60,66.30051
391.80,66.20574
392.00,66.09033
392.20,65.98613
392.40,65.90364
392.60,65.83002
392.80,65.73485
393.00,65.68331
393.20,65.64295
393.40,65.59004
393.60,65.54144
393.80,65.50325
394.00,65.47117
394.20,65.42608
394.40,65.43585
394.60,65.43741
394.80,65.50062
395.00,65.53985
395.20,65.61092
395.40,65.65881
395.60,65.70770
395.80,65.73259
396.00,65.82553
396.20,65.90484
396.40,65.92041
396.60,66.01787
396.80,66.10268
397.00,66.18778
397.20,66.27026
397.40,66.41271
397.60,66.51554
397.80,66.62466
398.00,66.68151
398.20,66.75681
398.40,66.87587
398.60,66.96853
398.80,67.08012
399.00,67.20132
399.20,67.34572
399.40,67.42570
399.60,67.58186
399.80,67.70954
400.00,67.84410
400.20,67.94921
400.40,68.07576
400.60,68.14030
400.80,68.18544
401.00,68.24886
401.20,68.32684
401.40,68.40470
401.60,68.49290
401.80,68.57603
402.00,68.64927
402.20,68.71508
402.40,68.78526
402.60,68.80447
402.80,68.89728
403.00,68.96712
403.20,68.95838
403.40,68.95884
403.60,68.95638
403.80,68.90301
404.00,68.85292
404.20,68.85256
404.40,68.77701
404.60,68.73354
404.80,68.69194
405.00,68.62570
405.20,68.56317
405.40,68.48702
405.60,68.43776
405.80,68.36044
406.00,68.28665
406.20,68.20445
406.40,68.13071
406.60,68.02762
406.80,67.90467
407.00,67.77812
407.20,67.66305
407.40,67.56429
407.60,67.42949
407.80,67.29909
408.00,67.19745
408.20,67.09810
408.40,66.98796
408.60,66.87557
408.80,66.80279
409.00,66.70310
409.20,66.61770
409.40,66.53728
409.60,66.46577
409.80,66.41537
410.00,66.33791
410.20,66.23437
410.40,66.14494
410.60,66.06492
410.80,65.98483
411.00,65.93007
411.20,65.90210
411.40,65.88301
411.60,65.90143
411.80,65.91573
412.00,65.91986
412.20,65.91461
412.40,65.93882
412.60,65.93828
412.80,65.93676
413.00,65.96534
413.20,65.98590
413.40,66.03366
413.60,66.11958
413.80,66.19786
414.00,66.27090
414.20,66.37260
414.40,66.44878
414.60,66.52156
414.80,66.60320
415.00,66.70134
415.20,66.82889
415.40,66.94641
415.60,67.04452
415.80,67.15176
416.00,67.27381
416.20,67.39850
416.40,67.53262
416.60,67.65625
416.80,67.76506
417.00,67.91521
417.20,67.99282
417.40,68.06586
417.60,68.18218
417.80,68.31502
418.00,68.39725
418.20,68.53502
418.40,68.64299
418.60,68.76479
418.80,68.86957
419.00,68.97867
419.20,69.08938
419.40,69.21368
419.60,69.30925
419.80,69.39793
420.00,69.45825
420.20,69.49434
420.40,69.55659
420.60,69.56864
420.80,69.63964
421.00,69.72237
421.20,69.79016
421.40,69.82814
421.60,69.92550
421.80,69.92888
422.00,69.92761
422.20,69.93566
422.40,69.92937
422.60,69.89315
422.80,69.88182
423.00,69.82626
423.20,69.75868
423.40,69.70057
423.60,69.62526
423.80,69.57490
424.00,69.52526
424.20,69.47559
424.40,69.44944
424.60,69.36507
424.80,69.27010
425.00,69.18687
425.20,69.11755
425.40,69.00151
425.60,68.91493
425.80,68.82600
426.00,68.77392
426.20,68.66189
426.40,68.57987
426.60,68.50992
426.80,68.42623
427.00,68.30253
427.20,68.22243
427.40,68.11008
427.60,68.01637
427.80,67.95136
428.00,67.86904
428.20,67.77720
428.40,67.71926
428.60,67.63426
428.80,67.53483
429.00,67.46638
429.20,67.40013
429.40,67.34645
429.60,67.30273
429.80,67.23232
430.00,67.19289
430.20,67.15244
430.40,67.08400
430.60,67.05414
430.80,67.01761
431.00,66.98877
431.20,66.99057
431.40,66.98771
431.60,66.96532
431.80,67.00423
432.00,67.02108
432.20,67.03418
432.40,67.05104
432.60,67.08894
432.80,67.12328
433.00,67.15962
433.20,67.19387
433.40,67.24609
433.60,67.28728
433.80,67.33290
434.00,67.39309
434.20,67.46581
434.40,67.56077
434.60,67.67210
434.80,67.75450
435.00,67.85463
435.20,67.94537
435.40,68.05434
435.60,68.14348
435.80,68.25002
436.00,68.36419
436.20,68.48027
436.40,68.57997
436.60,68.67920
436.80,68.81028
437.00,68.88954
437.20,68.97104
437.40,69.05941
437.60,69.19637
437.80,69.30544
438.00,69.41509
438.20,69.53790
438.40,69.65306
438.60,69.76007
438.80,69.84831
439.00,69.95482
439.20,70.06980
439.40,70.18129
439.60,70.24916
439.80,70.31726
440.00,70.39414
440.20,70.42667
440.40,70.46138
440.60,70.51972
440.80,70.58566
441.00,70.64612
441.20,70.69460
441.40,70.71974
441.60,70.74822
441.80,70.75619
442.00,70.75673
442.20,70.76929
442.40,70.76613
442.60,70.73522
442.80,70.73271
443.00,70.70415
443.20,70.69322
443.40,70.71237
443.60,70.70056
443.80,70.65309
444.00,70.63422
444.20,70.58569
444.40,70.51334
444.60,70.46838
444.80,70.41013
445.00,70.32405
445.20,70.25508
445.40,70.17776
445.60,70.06163
445.80,69.99406
446.00,69.91331
446.20,69.80953
446.40,69.73541
446.60,69.67638
446.80,69.56514
447.00,69.47436
447.20,69.39113
447.40,69.27421
447.60,69.16066
447.80,69.07842
448.00,68.98213
448.20,68.87585
448.40,68.76923
448.60,68.67436
448.80,68.57982
449.00,68.48219
449.20,68.40968
449.40,68.32843
449.60,68.26327
449.80,68.18265
450.00,68.10572
450.20,68.00032
450.40,67.94957
450.60,67.88121
450.80,67.79940
451.00,67.75072
451.20,67.72404
451.40,67.67275
451.60,67.61833
451.80,67.58803
452.00,67.55211
452.20,67.51406
452.40,67.45955
452.60,67.43758
452.80,67.41138
453.00,67.39502
453.20,67.39056
453.40,67.39292
453.60,67.36389
453.80,67.36524
454.00,67.39426
454.20,67.40173
454.40,67.44597
454.60,67.48933
454.80,67.54941
455.00,67.54528
455.20,67.59822
455.40,67.65302
455.60,67.73382
455.80,67.81515
456.00,67.88329
456.20,67.93742
456.40,67.98499
456.60,68.03194
456.80,68.07339
457.00,68.17350
457.20,68.25200
457.40,68.34117
457.60,68.46364
457.80,68.57193
458.00,68.65422
458.20,68.75171
458.40,68.85787
458.60,68.94279
458.80,69.02125
459.00,69.13084
459.20,69.21719
459.40,69.31264
459.60,69.41640
459.80,69.50515
460.00,69.62645
460.20,69.76044
460.40,69.85475
460.60,69.93326
460.80,70.03317
461.00,70.09090
461.20,70.16909
461.40,70.26806
461.60,70.36445
461.80,70.48998
462.00,70.57607
462.20,70.66386
462.40,70.73580
462.60,70.79350
462.80,70.82680
463.00,70.89255
463.20,70.94274
463.40,70.99606
463.60,71.07530
463.80,71.13525
464.00,71.16908
464.20,71.19923
464.40,71.22110
464.60,71.21075
464.80,71.21184
465.00,71.21351
465.20,71.19513
465.40,71.18819
465.60,71.17658
465.80,71.13923
466.00,71.12262
466.20,71.12444
466.40,71.09452
466.60,71.09979
466.80,71.07846
467.00,71.02382
467.20,70.99365
467.40,70.94898
467.60,70.86830
467.80,70.79460
468.00,70.75537
468.20,70.65632
468.40,70.57857
468.60,70.51999
468.80,70.45474
469.00,70.37417
469.20,70.30039
469.40,70.24857
469.60,70.12473
469.80,70.03940
470.00,69.95661
470.20,69.87329
470.40,69.77688
470.60,69.73133
470.80,69.65547
471.00,69.56599
471.20,69.48723
471.40,69.38330
471.60,69.27522
471.80,69.18250
472.00,69.09411
472.20,69.00020
472.40,68.91466
472.60,68.83604
472.80,68.75115
473.00,68.68725
473.20,68.59782
473.40,68.50052
473.60,68.41581
473.80,68.35477
474.00,68.27251
474.20,68.19707
474.40,68.14892
474.60,68.09788
474.80,68.04913
475.00,67.98145
475.20,67.93059
475.40,67.86476
475.60,67.82864
475.80,67.76711
476.00,67.73915
476.20,67.68134
476.40,67.65723
476.60,67.59761
476.80,67.57295
477.00,67.55509
477.20,67.58665
477.40,67.58587
477.60,67.60266
477.80,67.60654
478.00,67.58756
478.20,67.57383
478.40,67.59741
478.60,67.62060
478.80,67.62670
479.00,67.67723
479.20,67.73760
479.40,67.77130
479.60,67.78652
479.80,67.84066
480.00,67.87834
480.20,67.88637
480.40,67.91908
480.60,67.99922
480.80,68.06601
481.00,68.13597
481.20,68.20957
481.40,68.29736
481.60,68.32877
481.80,68.39134
482.00,68.45491
482.20,68.54063
482.40,68.61604
482.60,68.73602
482.80,68.82669
483.00,68.92807
483.20,69.03139
483.40,69.09977
483.60,69.19139
483.80,69.27995
484.00,69.34845
484.20,69.45695
484.40,69.56959
484.60,69.65410
484.80,69.74779
485.00,69.83618
485.20,69.89305
485.40,69.97828
485.60,70.06035
485.80,70.15156
486.00,70.26947
486.20,70.35803
486.40,70.46177
486.60,70.54868
486.80,70.61346
487.00,70.66016
487.20,70.74969
487.40,70.81130
487.60,70.90975
487.80,70.99663
488.00,71.09212
488.20,71.14812
488.40,71.18675
488.60,71.20031
488.80,71.24361
489.00,71.28197
489.20,71.31099
489.40,71.34140
489.60,71.38165
489.80,71.40830
490.00,71.41410
490.20,71.43233
490.40,71.46841
490.60,71.46700
490.80,71.45284
491.00,71.48373
491.20,71.49092
491.40,71.48516
491.60,71.48715
491.80,71.51207
492.00,71.46678
492.20,71.45320
492.40,71.43112
492.60,71.41185
492.80,71.37457
493.00,71.35432
493.20,71.29312
493.40,71.25018
493.60,71.20137
493.80,71.12198
494.00,71.05348
494.20,71.00133
494.40,70.92569
494.60,70.87721
494.80,70.81838
495.00,70.75555
495.20,70.72179
495.40,70.66587
495.60,70.56407
495.80,70.49715
496.00,70.41463
496.20,70.32277
496.40,70.23564
496.60,70.15340
496.80,70.07788
497.00,70.01317
497.20,69.92403
497.40,69.85182
497.60,69.78912
497.80,69.69426
498.00,69.59454
498.20,69.51195
498.40,69.41708
498.60,69.34804
498.80,69.25899
499.00,69.17731
499.20,69.10446
499.40,69.00998
499.60,68.90123
499.80,68.82746
500.00,68.75099
500.20,68.65843
500.40,68.58766
500.60,68.51802
500.80,68.47261
501.00,68.40233
501.20,68.33656
501.40,68.27371
501.60,68.21979
501.80,68.15174
502.00,68.13082
502.20,68.07277
502.40,68.04575
502.60,67.98990
502.80,67.93189
503.00,67.88694
503.20,67.87173
503.40,67.82082
503.60,67.80162
503.80,67.78352
504.00,67.75966
504.20,67.71885
504.40,67.72135
504.60,67.74040
504.80,67.74766
505.00,67.74724
505.20,67.78264
505.40,67.78674
505.60,67.76788
505.80,67.75310
506.00,67.75033
506.20,67.74668
506.40,67.74387
506.60,67.73378
506.80,67.76980
507.00,67.81045
507.20,67.85921
507.40,67.93715
507.60,68.01919
507.80,68.06893
508.00,68.11296
508.20,68.15044
508.40,68.17897
508.60,68.21291
508.80,68.29205
509.00,68.33300
509.20,68.40431
509.40,68.47713
509.60,68.56356
509.80,68.61675
510.00,68.69045
510.20,68.73131
510.40,68.80757
510.60,68.87819
510.80,68.94273
511.00,69.03049
511.20,69.12438
511.40,69.17354
511.60,69.25057
511.80,69.31636
512.00,69.39101
512.20,69.48253
512.40,69.58904
512.60,69.65973
512.80,69.75488
513.00,69.83662
513.20,69.91733
513.40,69.99891
513.60,70.10209
513.80,70.18774
514.00,70.27296
514.20,70.34910
514.40,70.41738
514.60,70.47468
514.80,70.54777
515.00,70.61624
515.20,70.69310
515.40,70.75993
515.60,70.84684
515.80,70.93907
516.00,71.03350
516.20,71.09861
516.40,71.16219
516.60,71.20538
516.80,71.24345
517.00,71.28546
517.20,71.33517
517.40,71.40110
517.60,71.45942
517.80,71.49999
518.00,71.55188
518.20,71.56604
518.40,71.58669
518.60,71.61075
518.80,71.63164
519.00,71.61521
519.20,71.64427
519.40,71.63162
519.60,71.61863
519.80,71.62896
520.00,71.62779
520.20,71.61309
520.40,71.63887
520.60,71.63256
520.80,71.59622
521.00,71.64400
521.20,71.65020
521.40,71.63042
521.60,71.60963
521.80,71.60737
522.00,71.55254
522.20,71.50754
522.40,71.45106
522.60,71.44796
522.80,71.42141
523.00,71.36361
523.20,71.34603
523.40,71.31255
523.60,71.26780
523.80,71.23012
524.00,71.16941
524.20,71.10659
524.40,71.05334
524.60,70.97832
524.80,70.89431
525.00,70.81987
525.20,70.73994
525.40,70.68014
525.60,70.60133
525.80,70.52948
526.00,70.46051
526.20,70.39403
526.40,70.30558
526.60,70.23556
526.80,70.18324
527.00,70.10822
527.20,70.04209
527.40,69.97856
527.60,69.90962
527.80,69.81474
528.00,69.75468
528.20,69.66163
528.40,69.56752
528.60,69.44954
528.80,69.35505
529.00,69.27469
529.20,69.17904
529.40,69.10621
529.60,69.06714
529.80,69.00365
530.00,68.91930
530.20,68.85289
530.40,68.77114
530.60,68.68913
530.80,68.62114
531.00,68.53887
531.20,68.47992
531.40,68.41646
531.60,68.35457
531.80,68.29401
532.00,68.25310
532.20,68.19041
532.40,68.12825
532.60,68.09022
532.80,68.03047
533.00,67.99074
533.20,67.95067
533.40,67.93444
533.60,67.89200
533.80,67.88164
534.00,67.87060
534.20,67.86290
534.40,67.83295
534.60,67.82148
534.80,67.80851
535.00,67.76832
535.20,67.75692
535.40,67.74001
535.60,67.69633
535.80,67.67960
536.00,67.68013
536.20,67.67522
536.40,67.68847
536.60,67.72603
536.80,67.74784
537.00,67.75115
537.20,67.77672
537.40,67.80416
537.60,67.81777
537.80,67.82367
538.00,67.86709
538.20,67.87610
538.40,67.89414
538.60,67.90757
538.80,67.93811
539.00,67.96070
539.20,68.01216
539.40,68.07033
539.60,68.11038
539.80,68.15771
540.00,68.19733
540.20,68.22859
540.40,68.26523
540.60,68.35651
540.80,68.41869
541.00,68.50723
541.20,68.57558
541.40,68.65100
541.60,68.70008
541.80,68.75856
542.00,68.81627
542.20,68.88279
542.40,68.94632
542.60,69.01959
542.80,69.07973
543.00,69.13416
543.20,69.21716
543.40,69.28683
543.60,69.35675
543.80,69.44976
544.00,69.53071
544.20,69.61498
544.40,69.70597
544.60,69.77425
544.80,69.81436
545.00,69.89640
545.20,69.94151
545.40,69.99705
545.60,70.06301
545.80,70.14568
546.00,70.22911
546.20,70.32629
546.40,70.40786
546.60,70.50487
546.80,70.57317
547.00,70.63458
547.20,70.68370
547.40,70.75719
547.60,70.81746
547.80,70.91583
548.00,70.96702
548.20,71.06366
548.40,71.12814
548.60,71.17628
548.80,71.19950
549.00,71.25520
549.20,71.27309
549.40,71.32731
549.60,71.40591
549.80,71.48436
550.00,71.53386
550.20,71.57955
550.40,71.59560
550.60,71.59034
550.80,71.62987
551.00,71.68704
551.20,71.75002
551.40,71.80715
551.60,71.85509
551.80,71.85390
552.00,71.85194
552.20,71.83943
552.40,71.82276
552.60,71.84848
552.80,71.87496
553.00,71.89419
553.20,71.91130
553.40,71.91240
553.60,71.88069
553.80,71.86273
554.00,71.84462
554.20,71.81028
554.40,71.80209
554.60,71.79949
554.80,71.79961
555.00,71.76110
555.20,71.75130
555.40,71.73356
555.60,71.69010
555.80,71.64478
556.00,71.61362
556.20,71.57889
556.40,71.54143
556.60,71.51659
556.80,71.48823
557.00,71.44575
557.20,71.38733
557.40,71.33067
557.60,71.25341
557.80,71.19380
558.00,71.15314
558.20,71.08587
558.40,71.04744
558.60,70.99098
558.80,70.90861
559.00,70.84642
559.20,70.79850
559.40,70.71999
559.60,70.68550
559.80,70.61255
560.00,70.55207
560.20,70.48655
560.40,70.42015
560.60,70.34080
560.80,70.28282
561.00,70.20654
561.20,70.14827
561.40,70.07774
561.60,70.01433
561.80,69.94912
562.00,69.90244
562.20,69.82668
562.40,69.75884
562.60,69.68308
562.80,69.62773
563.00,69.53010
563.20,69.47909
563.40,69.42938
563.60,69.35232
563.80,69.28548
564.00,69.23818
564.20,69.15777
564.40,69.07395
564.60,69.01956
564.80,68.94546
565.00,68.87911
565.20,68.81641
565.40,68.74487
565.60,68.69121
565.80,68.63392
566.00,68.57144
566.20,68.51344
566.40,68.46516
566.60,68.41637
566.80,68.36409
567.00,68.31099
567.20,68.27791
567.40,68.22938
567.60,68.17437
567.80,68.11208
568.00,68.08392
568.20,68.05720
568.40,68.03710
568.60,68.02125
568.80,68.03840
569.00,67.99892
569.20,67.95891
569.40,67.92452
569.60,67.90519
569.80,67.86602
570.00,67.86087
570.20,67.83846
570.40,67.82756
570.60,67.81905
570.80,67.82118
571.00,67.81331
571.20,67.81921
571.40,67.83299
571.60,67.81715
571.80,67.81095
572.00,67.81939
572.20,67.81234
572.40,67.82314
572.60,67.83539
572.80,67.84183
573.00,67.85976
573.20,67.88819
573.40,67.89832
573.60,67.96335
573.80,68.02177
574.00,68.03374
574.20,68.05460
574.40,68.09605
574.60,68.08597
574.80,68.12352
575.00,68.18182
575.20,68.23217
575.40,68.26867
575.60,68.34040
575.80,68.36556
576.00,68.38543
576.20,68.43520
576.40,68.48264
576.60,68.54118
576.80,68.60959
577.00,68.70814
577.20,68.77354
577.40,68.82039
577.60,68.86806
577.80,68.92918
578.00,68.95559
578.20,69.00496
578.40,69.06558
578.60,69.13005
578.80,69.17032
579.00,69.25954
579.20,69.30234
579.40,69.37746
579.60,69.42397
579.80,69.50063
580.00,69.55519
580.20,69.65262
580.40,69.71615
580.60,69.79792
580.80,69.84695
581.00,69.92633
581.20,69.99471
581.40,70.05969
581.60,70.12630
581.80,70.20339
582.00,70.25555
582.20,70.31640
582.40,70.39738
582.60,70.46767
582.80,70.54433
583.00,70.60677
583.20,70.64201
583.40,70.70831
583.60,70.76566
583.80,70.82734
584.00,70.89579
584.20,70.99850
584.40,71.04298
584.60,71.10717
584.80,71.16478
585.00,71.22551
585.20,71.28253
585.40,71.34318
585.60,71.39544
585.80,71.43141
586.00,71.48493
586.20,71.52789
586.40,71.57401
586.60,71.61968
586.80,71.66492
587.00,71.69693
587.20,71.73120
587.40,71.75950
587.60,71.79791
587.80,71.87797
588.00,71.92759
588.20,71.98042
588.40,72.02260
588.60,72.06924
588.80,72.08225
589.00,72.08531
589.20,72.09082
589.40,72.11159
589.60,72.10369
589.80,72.09492
590.00,72.11481
590.20,72.13683
590.40,72.16080
590.60,72.18382
590.80,72.22137
591.00,72.25955
591.20,72.27728
591.40,72.27690
591.60,72.27518
591.80,72.26864
592.00,72.24217
592.20,72.21854
592.40,72.22493
592.60,72.23018
592.80,72.20151
593.00,72.19628
593.20,72.21073
593.40,72.16994
593.60,72.12460
593.80,72.11211
594.00,72.07619
594.20,72.01164
594.40,71.98982
594.60,71.95879
594.80,71.91399
595.00,71.88014
595.20,71.84832
595.40,71.80290
595.60,71.77820
595.80,71.74901
596.00,71.70915
596.20,71.67675
596.40,71.64622
596.60,71.58252
596.80,71.53092
597.00,71.47535
597.20,71.39056
597.40,71.34650
597.60,71.28679
597.80,71.21583
598.00,71.16228
598.20,71.13715
598.40,71.05964
598.60,71.03059
598.80,71.01169
599.00,70.94346
599.20,70.88999
599.40,70.82483
599.60,70.73168
599.80,70.65327
600.00,70.59900
600.20,70.51037
600.40,70.46515
600.60,70.41884
600.80,70.36541
601.00,70.29321
601.20,70.24070
601.40,70.18337
601.60,70.11249
601.80,70.05149
602.00,69.99579
602.20,69.92390
602.40,69.82940
602.60,69.77831
602.80,69.69408
603.00,69.62620
603.20,69.58921
603.40,69.55795
603.60,69.49127
603.80,69.44067
604.00,69.40212
604.20,69.34583
604.40,69.28719
604.60,69.24046
604.80,69.19202
605.00,69.14418
605.20,69.07513
605.40,69.01564
605.60,68.97268
605.80,68.90351
606.00,68.86647
606.20,68.81122
606.40,68.76736
606.60,68.72843
606.80,68.69739
607.00,68.65665
607.20,68.62199
607.40,68.58170
607.60,68.54867
607.80,68.52641
608.00,68.48294
608.20,68.45753
608.40,68.44843
608.60,68.39339
608.80,68.35709
609.00,68.32173
609.20,68.28941
609.40,68.26648
609.60,68.25260
609.80,68.23311
610.00,68.23444
610.20,68.23727
610.40,68.22205
610.60,68.20458
610.80,68.19320
611.00,68.17651
611.20,68.14379
611.40,68.11087
611.60,68.11925
611.80,68.10722
612.00,68.08617
612.20,68.10708
612.40,68.11997
612.60,68.10433
612.80,68.13084
613.00,68.14478
613.20,68.16624
613.40,68.16226
613.60,68.19199
613.80,68.19543
614.00,68.20573
614.20,68.20930
614.40,68.22950
614.60,68.23928
614.80,68.25591
615.00,68.29531
615.20,68.29970
615.40,68.35093
615.60,68.39052
615.80,68.41686
616.00,68.43065
616.20,68.47692
616.40,68.49934
616.60,68.52703
616.80,68.57326
617.00,68.60145
617.20,68.62813
617.40,68.65197
617.60,68.68439
617.80,68.71904
618.00,68.79183
618.20,68.85040
618.40,68.91391
618.60,68.97529
618.80,69.03248
619.00,69.06831
619.20,69.12645
619.40,69.19490
619.60,69.24756
619.80,69.31303
620.00,69.37520
620.20,69.43896
620.40,69.48634
620.60,69.51956
620.80,69.56728
621.00,69.60860
621.20,69.65961
621.40,69.69651
621.60,69.79607
621.80,69.84574
622.00,69.90376
622.20,69.97973
622.40,70.05255
622.60,70.09158
622.80,70.16850
623.00,70.27057
623.20,70.31773
623.40,70.40769
623.60,70.47909
623.80,70.51012
624.00,70.54716
624.20,70.60679
624.40,70.65521
624.60,70.71866
624.80,70.78422
625.00,70.84938
625.20,70.90530
625.40,70.94988
625.60,71.00325
625.80,71.07821
626.00,71.15054
626.20,71.22606
626.40,71.30129
626.60,71.35036
626.80,71.40684
627.00,71.43705
627.20,71.47069
627.40,71.52584
627.60,71.56457
627.80,71.62871
628.00,71.70548
628.20,71.75661
628.40,71.79312
628.60,71.86455
628.80,71.90869
629.00,71.93975
629.20,72.01524
629.40,72.06502
629.60,72.11555
629.80,72.14339
630.00,72.21598
630.20,72.23025
630.40,72.27746
630.60,72.33291
630.80,72.38386
631.00,72.39763
631.20,72.44055
631.40,72.45598
631.60,72.45443
631.80,72.47165
632.00,72.50118
632.20,72.52647
632.40,72.55090
632.60,72.56467
632.80,72.59943
633.00,72.61617
633.20,72.64368
633.40,72.66612
633.60,72.67222
633.80,72.68919
634.00,72.71429
634.20,72.72121
634.40,72.75807
634.60,72.79245
634.80,72.80610
635.00,72.78361
635.20,72.78404
635.40,72.74923
635.60,72.75878
635.80,72.73911
636.00,72.78343
636.20,72.75580
636.40,72.76009
636.60,72.76977
636.80,72.76250
637.00,72.69282
637.20,72.73058
637.40,72.70545
637.60,72.67940
637.80,72.65114
638.00,72.68620
638.20,72.65084
638.40,72.64897
638.60,72.62734
638.80,72.61473
639.00,72.55614
639.20,72.52885
639.40,72.49252
639.60,72.45671
639.80,72.42816
640.00,72.38451
640.20,72.33323
640.40,72.29307
640.60,72.24196
640.80,72.23461
641.00,72.22682
641.20,72.19017
641.40,72.16996
641.60,72.12511
641.80,72.05930
642.00,72.01411
642.20,71.96127
642.40,71.92035
642.60,71.88003
642.80,71.85317
643.00,71.80445
643.20,71.77916
643.40,71.70843
643.60,71.65847
643.80,71.58715
644.00,71.51149
644.20,71.42982
644.40,71.39468
644.60,71.35698
644.80,71.27678
645.00,71.21359
645.20,71.18431
645.40,71.13389
645.60,71.06764
645.80,71.04620
646.00,70.99481
646.20,70.93457
646.40,70.86717
646.60,70.82365
646.80,70.78859
647.00,70.75655
647.20,70.71358
647.40,70.66228
647.60,70.60866
647.80,70.53862
648.00,70.48458
648.20,70.43730
648.40,70.38273
648.60,70.32974
648.80,70.26001
649.00,70.20021
649.20,70.13767
649.40,70.09426
649.60,70.04018
649.80,70.00005
650.00,69.96826
650.20,69.91063
650.40,69.86835
650.60,69.82746
650.80,69.79387
651.00,69.75508
651.20,69.71352
651.40,69.66469
651.60,69.63443
651.80,69.57139
652.00,69.52928
652.20,69.50172
652.40,69.47016
652.60,69.42360
652.80,69.42400
653.00,69.36788
653.20,69.34330
653.40,69.31452
653.60,69.29307
653.80,69.23299
654.00,69.23608
654.20,69.21747
654.40,69.17208
654.60,69.11057
654.80,69.07207
655.00,69.01579
655.20,68.96406
655.40,68.96849
655.60,68.97591
655.80,69.00465
656.00,69.00112
656.20,68.98791
656.40,68.95975
656.60,68.96241
656.80,68.90368
657.00,68.90436
657.20,68.91878
657.40,68.90753
657.60,68.88074
657.80,68.91949
658.00,68.90144
658.20,68.87572
658.40,68.87147
658.60,68.86675
658.80,68.81782
659.00,68.80926
659.20,68.80043
659.40,68.80973
659.60,68.83675
659.80,68.88202
660.00,68.92054
660.20,68.92818
660.40,68.93044
660.60,68.90232
660.80,68.88255
661.00,68.87599
661.20,68.91096
661.40,68.90218
661.60,68.92101
661.80,68.93086
662.00,68.92371
662.20,68.92468
662.40,68.95490
662.60,69.00940
662.80,69.04962
663.00,69.09481
663.20,69.14168
663.40,69.17863
663.60,69.18409
663.80,69.19540
664.00,69.22201
664.20,69.23033
664.40,69.27128
664.60,69.29801
664.80,69.35599
665.00,69.40032
665.20,69.45187
665.40,69.49030
665.60,69.54694
665.80,69.59785
666.00,69.62408
666.20,69.67243
666.40,69.70999
666.60,69.76183
666.80,69.78931
667.00,69.84081
667.20,69.87693
667.40,69.92289
667.60,69.98717
667.80,70.04791
668.00,70.11867
668.20,70.20043
668.40,70.26659
668.60,70.33427
668.80,70.38851
669.00,70.42717
669.20,70.46384
669.40,70.48741
669.60,70.46211
669.80,70.50161
670.00,70.59665
670.20,70.62850
670.40,70.68523
670.60,70.77479
670.80,70.82881
671.00,70.85046
671.20,70.93996
671.40,71.01634
671.60,71.11163
671.80,71.18247
672.00,71.24153
672.20,71.29708
672.40,71.38240
672.60,71.38771
672.80,71.44535
673.00,71.52164
673.20,71.57927
673.40,71.59601
673.60,71.66948
673.80,71.68477
674.00,71.71776
674.20,71.79707
674.40,71.85236
674.60,71.89377
674.80,72.00034
675.00,72.07993
675.20,72.13151
675.40,72.19208
675.60,72.29397
675.80,72.33574
676.00,72.35453
676.20,72.38249
676.40,72.45617
676.60,72.51448
676.80,72.57969
677.00,72.63045
677.20,72.71965
677.40,72.80693
677.60,72.83903
677.80,72.91770
678.00,73.02001
678.20,73.02809
678.40,73.03352
678.60,73.08533
678.80,73.10965
679.00,73.14079
679.20,73.21266
679.40,73.31372
679.60,73.36538
679.80,73.40468
680.00,73.46714
680.20,73.52952
680.40,73.53169
680.60,73.58339
680.80,73.64148
681.00,73.67597
681.20,73.70714
681.40,73.73829
681.60,73.77347
681.80,73.80327
682.00,73.84471
682.20,73.89836
682.40,73.94418
682.60,73.98543
682.80,74.01465
683.00,74.02161
683.20,73.99611
683.40,74.03324
683.60,74.08821
683.80,74.12608
684.00,74.15026
684.20,74.21388
684.40,74.23649
684.60,74.29006
684.80,74.33892
685.00,74.36777
685.20,74.36560
685.40,74.37192
685.60,74.36497
685.80,74.36860
686.00,74.38841
686.20,74.44065
686.40,74.48809
686.60,74.44918
686.80,74.46022
687.00,74.50657
687.20,74.48903
687.40,74.51741
687.60,74.54060
687.80,74.56706
688.00,74.51903
688.20,74.53180
688.40,74.52931
688.60,74.50303
688.80,74.44384
689.00,74.43526
689.20,74.44962
689.40,74.43787
689.60,74.49778
689.80,74.55989
690.00,74.60867
690.20,74.61060
690.40,74.60992
690.60,74.54567
690.80,74.53738
691.00,74.47385
691.20,74.43143
691.40,74.40343
691.60,74.42230
691.80,74.35655
692.00,74.35951
692.20,74.33870
692.40,74.32267
692.60,74.28314
692.80,74.30576
693.00,74.32464
693.20,74.31171
693.40,74.23964
693.60,74.20374
693.80,74.14055
694.00,74.06917
694.20,74.06244
694.40,74.04137
694.60,74.06166
694.80,73.98968
695.00,73.99524
695.20,73.96572
695.40,73.99209
695.60,73.95787
695.80,74.02210
696.00,73.96684
696.20,73.90736
696.40,73.84301
696.60,73.80354
696.80,73.74300
697.00,73.69519
697.20,73.65812
697.40,73.61719
697.60,73.62132
697.80,73.54684
698.00,73.54401
698.20,73.50050
698.40,73.51219
698.60,73.42095
698.80,73.39685
699.00,73.34265
699.20,73.33287
699.40,73.24535
699.60,73.22976
699.80,73.26854
700.00,73.25034
700.20,73.24226
700.40,73.22854
700.60,73.16750
700.80,73.09281
701.00,73.08272
701.20,72.99874
701.40,72.93016
701.60,72.95936
701.80,72.91459
702.00,72.87027
702.20,72.88886
702.40,72.93077
702.60,72.86969
702.80,72.83283
703.00,72.81581
703.20,72.77390
703.40,72.73498
703.60,72.71168
703.80,72.70355
704.00,72.64647
704.20,72.61938
704.40,72.59412
704.60,72.58868
704.80,72.56041
705.00,72.51674
705.20,72.50770
705.40,72.44704
705.60,72.35892
705.80,72.33109
706.00,72.34941
706.20,72.24538
706.40,72.24434
706.60,72.23987
706.80,72.21226
707.00,72.20353
707.20,72.20589
707.40,72.16124
707.60,72.09976
707.80,72.09587
708.00,72.02856
708.20,72.04538
708.40,72.00468
708.60,72.03460
708.80,72.02376
709.00,72.02380
709.20,72.02874
709.40,72.05178
709.60,72.04838
709.80,72.03133
710.00,71.99508
710.20,71.95336
710.40,71.94181
710.60,71.93125
710.80,71.90732
711.00,71.90514
711.20,71.91475
711.40,71.92137
711.60,71.93971
711.80,71.92777
712.00,71.94991
712.20,71.90977
712.40,71.87689
712.60,71.80520
712.80,71.84724
713.00,71.80158
713.20,71.82939
713.40,71.87408
713.60,71.91244
713.80,71.85984
714.00,71.90858
714.20,71.92736
714.40,71.89017
714.60,71.88560
714.80,71.94386
715.00,71.95648
715.20,71.95282
715.40,72.01192
715.60,72.04555
715.80,71.98838
716.00,72.00423
716.20,72.00080
716.40,71.95650
716.60,71.96720
716.80,72.05668
717.00,72.03939
717.20,72.08077
717.40,72.13985
717.60,72.13167
717.80,72.13380
718.00,72.19726
718.20,72.20654
718.40,72.21925
718.60,72.28830
718.80,72.29743
719.00,72.29164
719.20,72.33415
719.40,72.34516
719.60,72.37474
719.80,72.41453
720.00,72.44955
720.20,72.43013
720.40,72.49209
720.60,72.53974
720.80,72.56036
721.00,72.59855
721.20,72.65894
721.40,72.61832
721.60,72.64233
721.80,72.67078
722.00,72.66906
722.20,72.69551
722.40,72.79225
722.60,72.78262
722.80,72.82979
723.00,72.96925
723.20,73.05521
723.40,73.05709
723.60,73.12883
723.80,73.13845
724.00,73.14595
724.20,73.13253
724.40,73.18968
724.60,73.23506
724.80,73.32794
725.00,73.36082
725.20,73.44732
725.40,73.52408
725.60,73.55731
725.80,73.63467
726.00,73.67385
726.20,73.76131
726.40,73.78429
726.60,73.81299
726.80,73.79500
727.00,73.87463
727.20,73.83142
727.40,73.88308
727.60,73.96226
727.80,74.05401
728.00,74.06386
728.20,74.13885
728.40,74.19927
728.60,74.22339
728.80,74.27312
729.00,74.26610
729.20,74.34080
729.40,74.43316
729.60,74.50376
729.80,74.48127
730.00,74.56387
730.20,74.62122
730.40,74.68581
730.60,74.73916
730.80,74.92673
731.00,74.99893
731.20,75.07160
731.40,75.07936
731.60,75.10469
731.80,75.13158
732.00,75.18742
732.20,75.25584
732.40,75.31359
732.60,75.43746
732.80,75.40804
733.00,75.46803
733.20,75.49641
733.40,75.57897
733.60,75.53810
733.80,75.63633
734.00,75.63120
734.20,75.63493
734.40,75.61908
734.60,75.66270
734.80,75.73310
735.00,75.84926
735.20,75.91845
735.40,76.02904
735.60,76.17201
735.80,76.17023
736.00,76.17612
736.20,76.19478
736.40,76.20037
736.60,76.18789
736.80,76.22556
737.00,76.21651
737.20,76.28678
737.40,76.28858
737.60,76.37516
737.80,76.38298
738.00,76.54479
738.20,76.58476
738.40,76.66516
738.60,76.61443
738.80,76.70091
739.00,76.66075
739.20,76.65207
739.40,76.69838
739.60,76.79087
739.80,76.78593
740.00,76.80629
740.20,76.86375
740.40,76.88950
740.60,76.86312
740.80,76.90182
741.00,77.02454
741.20,77.07839
741.40,77.11014
741.60,77.15650
741.80,77.23222
742.00,77.13002
742.20,77.12343
742.40,77.11179
742.60,77.16045
742.80,77.12200
743.00,77.17522
743.20,77.17131
743.40,77.19158
743.60,77.21630
743.80,77.26671
744.00,77.33328
744.20,77.37951
744.40,77.41969
744.60,77.38769
744.80,77.41243
745.00,77.37524
745.20,77.39958
745.40,77.38653
745.60,77.41029
745.80,77.47053
746.00,77.47408
746.20,77.45063
746.40,77.39631
746.60,77.39885
746.80,77.27962
747.00,77.40405
747.20,77.41165
747.40,77.44487
747.60,77.44468
747.80,77.51574
748.00,77.46841
748.20,77.50880
748.40,77.54569
748.60,77.57457
748.80,77.55195
749.00,77.61793
749.20,77.57212
749.40,77.55871
749.60,77.59708
749.80,77.59664
750.00,77.51353
750.20,77.55730
750.40,77.57362
750.60,77.51474
750.80,77.44882
751.00,77.39419
751.20,77.27981
751.40,77.25152
751.60,77.20926
751.80,77.28544
752.00,77.33854
752.20,77.42594
752.40,77.41683
752.60,77.50242
752.80,77.43787
753.00,77.35176
753.20,77.29210
753.40,77.30888
753.60,77.21291
753.80,77.13987
754.00,77.13810
754.20,77.14279
754.40,77.02429
754.60,76.96027
754.80,76.99705
755.00,76.97405
755.20,76.94820
755.40,76.97329
755.60,76.98179
755.80,76.95217
756.00,76.92263
756.20,76.91627
756.40,76.91236
756.60,76.90492
756.80,76.81076
757.00,76.78496
757.20,76.67311
757.40,76.51970
757.60,76.46934
757.80,76.47105
758.00,76.42680
758.20,76.43070
758.40,76.46257
758.60,76.37697
758.80,76.41293
759.00,76.32390
759.20,76.24370
759.40,76.29753
759.60,76.29255
759.80,76.22359
760.00,76.28317
760.20,76.27801
760.40,76.16291
760.60,76.10618
760.80,76.03951
761.00,75.97141
761.20,75.92844
761.40,75.91143
761.60,75.85663
761.80,75.91109
762.00,75.81155
762.20,75.82314
762.40,75.76697
762.60,75.79353
762.80,75.73906
763.00,75.70331
763.20,75.64695
763.40,75.65090
763.60,75.67184
763.80,75.58845
764.00,75.61041
764.20,75.58254
764.40,75.57176
764.60,75.38848
764.80,75.33444
765.00,75.34263
765.20,75.17509
765.40,75.03678
765.60,75.06539
765.80,75.03240
766.00,74.87850
766.20,74.94550
766.40,75.02144
766.60,74.91994
766.80,74.83346
767.00,74.87768
767.20,74.86840
767.40,74.74809
767.60,74.78493
767.80,74.75202
768.00,74.68164
768.20,74.54905
768.40,74.48366
768.60,74.42343
768.80,74.38414
769.00,74.26610
769.20,74.25352
769.40,74.18981
769.60,74.19047
769.80,74.15192
770.00,74.21769
770.20,74.16914
770.40,74.30128
770.60,74.29649
770.80,74.31821
771.00,74.28548
771.20,74.34011
771.40,74.22466
771.60,74.20884
771.80,74.17750
772.00,74.14415
772.20,74.11241
772.40,74.05262
772.60,74.01753
772.80,74.02113
773.00,73.97566
773.20,73.94058
773.40,73.98339
773.60,73.91588
773.80,73.83807
774.00,73.81331
774.20,73.70638
774.40,73.64714
774.60,73.57075
774.80,73.57631
775.00,73.53140
775.20,73.61796
775.40,73.59401
775.60,73.67354
775.80,73.64174
776.00,73.65891
776.20,73.55562
776.40,73.58797
776.60,73.54023
776.80,73.55102
777.00,73.55768
777.20,73.68242
777.40,73.65886
777.60,73.66252
777.80,73.65018
778.00,73.68981
778.20,73.58364
778.40,73.66379
778.60,73.52427
778.80,73.52135
779.00,73.45888
779.20,73.48409
779.40,73.26203
779.60,73.37915
779.80,73.34978
780.00,73.29906
780.20,73.22224
780.40,73.29507
780.60,73.24578
780.80,73.24924
781.00,73.28197
781.20,73.36229
781.40,73.48170
781.60,73.52946
781.80,73.52877
782.00,73.59074
782.20,73.50169
782.40,73.44137
782.60,73.39856
782.80,73.40802
783.00,73.34860
783.20,73.39714
783.40,73.33971
783.60,73.39222
783.80,73.33138
784.00,73.30229
784.20,73.40724
784.40,73.48152
784.60,73.53814
784.80,73.68936
785.00,73.85332
785.20,73.81513
785.40,73.77755
785.60,73.74821
785.80,73.60550
786.00,73.42486
786.20,73.39262
786.40,73.48624
786.60,73.47652
786.80,73.60854
787.00,73.75128
787.20,73.77260
787.40,73.79280
787.60,73.84858
787.80,73.86034
788.00,73.86698
788.20,73.90268
788.40,73.81706
788.60,73.84907
788.80,73.82178
789.00,73.85276
789.20,73.84330
789.40,73.92346
789.60,73.79075
789.80,73.86464
790.00,73.86886
790.20,74.04625
790.40,74.11726
790.60,74.23398
790.80,74.24679
791.00,74.31189
791.20,74.20622
791.40,74.10356
791.60,74.16118
791.80,74.15864
792.00,74.20560
792.20,74.25971
792.40,74.37038
792.60,74.40959
792.80,74.50627
793.00,74.47701
793.20,74.60364
793.40,74.59795
793.60,74.60994
793.80,74.59370
794.00,74.67712
794.20,74.64494
794.40,74.75241
794.60,74.77842
794.80,74.79365
795.00,74.75377
795.20,74.82713
795.40,74.85284
795.60,74.96914
795.80,75.04289
796.00,75.10777
796.20,75.12972
796.40,75.12047
796.60,75.07660
796.80,75.08036
797.00,75.15050
797.20,75.15233
797.40,75.29254
797.60,75.39430
797.80,75.44869
798.00,75.39384
798.20,75.36765
798.40,75.27491
798.60,75.24626
798.80,75.26299
799.00,75.30816
799.20,75.36423
799.40,75.47783
799.60,75.44930
799.80,75.42439
800.00,75.41164
