"Resin MN1534 Slow - RawData"
"Wavelength nm.","T%"
200.00,0.24734
200.20,0.24339
200.40,0.25817
200.60,0.25513
200.80,0.25265
201.00,0.21887
201.20,0.21439
201.40,0.20071
201.60,0.19611
201.80,0.17391
202.00,0.16873
202.20,0.15958
202.40,0.13945
202.60,0.12207
202.80,0.11089
203.00,0.13076
203.20,0.14560
203.40,0.15016
203.60,0.16936
203.80,0.18040
204.00,0.14942
204.20,0.14977
204.40,0.17166
204.60,0.15952
204.80,0.14170
205.00,0.14904
205.20,0.12501
205.40,0.10522
205.60,0.09544
205.80,0.10125
206.00,0.10830
206.20,0.13227
206.40,0.12619
206.60,0.13473
206.80,0.13206
207.00,0.13380
207.20,0.11165
207.40,0.10998
207.60,0.11552
207.80,0.11313
208.00,0.10528
208.20,0.10661
208.40,0.11746
208.60,0.11482
208.80,0.11170
209.00,0.10973
209.20,0.11263
209.40,0.10617
209.60,0.10154
209.80,0.11077
210.00,0.12275
210.20,0.10796
210.40,0.09845
210.60,0.08918
210.80,0.07789
211.00,0.06030
211.20,0.06912
211.40,0.07749
211.60,0.08269
211.80,0.08937
212.00,0.09676
212.20,0.09888
212.40,0.08744
212.60,0.09024
212.80,0.08443
213.00,0.08239
213.20,0.08665
213.40,0.08704
213.60,0.08259
213.80,0.08912
214.00,0.08265
214.20,0.07417
214.40,0.07110
214.60,0.07128
214.80,0.06200
215.00,0.06100
215.20,0.07030
215.40,0.07668
215.60,0.08262
215.80,0.08322
216.00,0.08567
216.20,0.07856
216.40,0.07792
216.60,0.07131
216.80,0.08076
217.00,0.08503
217.20,0.09044
217.40,0.09637
217.60,0.10065
217.80,0.09150
218.00,0.09341
218.20,0.09038
218.40,0.07849
218.60,0.08574
218.80,0.08917
219.00,0.08957
219.20,0.09390
219.40,0.10695
219.60,0.09080
219.80,0.09262
220.00,0.09022
220.20,0.08886
220.40,0.08360
220.60,0.08737
220.80,0.08810
221.00,0.08402
221.20,0.07928
221.40,0.07961
221.60,0.08302
221.80,0.08317
222.00,0.08504
222.20,0.08661
222.40,0.08731
222.60,0.08243
222.80,0.08668
223.00,0.08932
223.20,0.08753
223.40,0.09151
223.60,0.10057
223.80,0.09564
224.00,0.09660
224.20,0.10084
224.40,0.09753
224.60,0.09293
224.80,0.09592
225.00,0.09487
225.20,0.09274
225.40,0.09473
225.60,0.09345
225.80,0.08857
226.00,0.08950
226.20,0.09039
226.40,0.09229
226.60,0.09719
226.80,0.10120
227.00,0.10075
227.20,0.10744
227.40,0.10470
227.60,0.10449
227.80,0.10273
228.00,0.10577
228.20,0.11037
228.40,0.11115
228.60,0.11263
228.80,0.11560
229.00,0.11443
229.20,0.11263
229.40,0.11140
229.60,0.11178
229.80,0.11366
230.00,0.11373
230.20,0.10596
230.40,0.10752
230.60,0.10197
230.80,0.09583
231.00,0.09458
231.20,0.09407
231.40,0.08613
231.60,0.09679
231.80,0.10446
232.00,0.10645
232.20,0.11189
232.40,0.12610
232.60,0.12895
232.80,0.13466
233.00,0.14764
233.20,0.16374
233.40,0.18268
233.60,0.20297
233.80,0.23422
234.00,0.26383
234.20,0.30418
234.40,0.35019
234.60,0.40774
234.80,0.48610
235.00,0.58031
235.20,0.68740
235.40,0.81955
235.60,0.96856
235.80,1.12970
236.00,1.32743
236.20,1.56193
236.40,1.82404
236.60,2.12053
236.80,2.47895
237.00,2.86995
237.20,3.29953
237.40,3.79731
237.60,4.34153
237.80,4.91741
238.00,5.55587
238.20,6.27071
238.40,7.02191
238.60,7.82949
238.80,8.67489
239.00,9.56955
239.20,10.51786
239.40,11.51782
239.60,12.58373
239.80,13.71444
240.00,14.90448
240.20,16.10306
240.40,17.33285
240.60,18.64746
240.80,20.00145
241.00,21.36681
241.20,22.71946
241.40,24.08687
241.60,25.41384
241.80,26.70350
242.00,27.97608
242.20,29.27690
242.40,30.53714
242.60,31.73534
242.80,33.00220
243.00,34.16094
243.20,35.33734
243.40,36.40648
243.60,37.49122
243.80,38.47832
244.00,39.49933
244.20,40.44014
244.40,41.43669
244.60,42.34254
244.80,43.23684
245.00,44.08458
245.20,44.85228
245.40,45.62974
245.60,46.29835
245.80,46.87931
246.00,47.43897
246.20,47.94576
246.40,48.38592
246.60,48.86866
246.80,49.28208
247.00,49.65349
247.20,50.09283
247.40,50.44522
247.60,50.80250
247.80,51.19351
248.00,51.56847
248.20,51.89593
248.40,52.28024
248.60,52.63677
248.80,52.98750
249.00,53.39664
249.20,53.74600
249.40,53.97007
249.60,54.12725
249.80,54.21682
250.00,54.18355
250.20,54.09167
250.40,54.15196
250.60,54.28088
250.80,54.41057
251.00,54.58374
251.20,54.88585
251.40,55.03135
251.60,55.17802
251.80,55.38291
252.00,55.68575
252.20,55.89337
252.40,56.25856
252.60,56.47106
252.80,56.74831
253.00,56.82202
253.20,56.81902
253.40,56.89257
253.60,57.05133
253.80,57.06466
254.00,57.16609
254.20,57.30840
254.40,57.22216
254.60,57.13743
254.80,57.04952
255.00,57.01806
255.20,57.06133
255.40,57.12993
255.60,57.32400
255.80,57.44117
256.00,57.51890
256.20,57.70233
256.40,57.93702
256.60,58.05260
256.80,58.25557
257.00,58.48404
257.20,58.62073
257.40,58.77271
257.60,58.82344
257.80,59.01557
258.00,59.14269
258.20,59.17213
258.40,59.06286
258.60,59.06022
258.80,58.96907
259.00,58.83353
259.20,58.79141
259.40,58.85904
259.60,58.84982
259.80,58.80041
260.00,58.92268
260.20,58.93679
260.40,58.93494
260.60,59.02206
260.80,59.23774
261.00,59.35131
261.20,59.58971
261.40,59.83729
261.60,60.02182
261.80,60.14277
262.00,60.30697
262.20,60.40102
262.40,60.49921
262.60,60.69456
262.80,60.72560
263.00,60.78467
263.20,60.80524
263.40,60.82161
263.60,60.72664
263.80,60.75041
264.00,60.68242
264.20,60.54462
264.40,60.41248
264.60,60.26413
264.80,60.17783
265.00,60.07987
265.20,60.05879
265.40,60.05091
265.60,60.14885
265.80,60.18760
266.00,60.22304
266.20,60.31953
266.40,60.45507
266.60,60.51559
266.80,60.64450
267.00,60.79663
267.20,60.95412
267.40,61.10871
267.60,61.29473
267.80,61.42879
268.00,61.60475
268.20,61.71657
268.40,61.77857
268.60,61.83138
268.80,61.83083
269.00,61.76230
269.20,61.65527
269.40,61.61978
269.60,61.54542
269.80,61.42977
270.00,61.26774
270.20,61.17426
270.40,60.97559
270.60,60.85591
270.80,60.75960
271.00,60.73539
271.20,60.70864
271.40,60.79312
271.60,60.78799
271.80,60.80493
272.00,60.87504
272.20,61.01478
272.40,61.06229
272.60,61.19956
272.80,61.40512
273.00,61.55030
273.20,61.67725
273.40,61.79543
273.60,61.98924
273.80,62.12437
274.00,62.29925
274.20,62.39302
274.40,62.52546
274.60,62.46657
274.80,62.39152
275.00,62.31210
275.20,62.20830
275.40,62.03483
275.60,62.01080
275.80,61.93574
276.00,61.84137
276.20,61.74747
276.40,61.64958
276.60,61.44564
276.80,61.31604
277.00,61.18235
277.20,61.18790
277.40,61.14094
277.60,61.19808
277.80,61.25180
278.00,61.33685
278.20,61.32662
278.40,61.37409
278.60,61.49816
278.80,61.63576
279.00,61.78444
279.20,61.95906
279.40,62.22779
279.60,62.40037
279.80,62.48536
280.00,62.48308
280.20,62.56426
280.40,62.65550
280.60,62.74723
280.80,62.82493
281.00,62.99880
281.20,63.05493
281.40,62.99109
281.60,62.84750
281.80,62.72160
282.00,62.54506
282.20,62.41122
282.40,62.28670
282.60,62.16180
282.80,62.04373
283.00,61.93166
283.20,61.83131
283.40,61.75377
283.60,61.69531
283.80,61.79418
284.00,61.78448
284.20,61.71488
284.40,61.65184
284.60,61.70450
284.80,61.67795
285.00,61.75100
285.20,61.83820
285.40,61.96811
285.60,62.06795
285.80,62.14021
286.00,62.32420
286.20,62.54768
286.40,62.77314
286.60,62.97330
286.80,63.20863
287.00,63.38122
287.20,63.52346
287.40,63.60418
287.60,63.65947
287.80,63.71999
288.00,63.75596
288.20,63.74419
288.40,63.74105
288.60,63.75768
288.80,63.68937
289.00,63.63247
289.20,63.53469
289.40,63.43092
289.60,63.31026
289.80,63.25824
290.00,63.09940
290.20,62.98293
290.40,62.92600
290.60,62.80068
290.80,62.61257
291.00,62.52336
291.20,62.43467
291.40,62.30807
291.60,62.32004
291.80,62.39363
292.00,62.37981
292.20,62.41066
292.40,62.53794
292.60,62.61270
292.80,62.70103
293.00,62.92122
293.20,63.10518
293.40,63.23394
293.60,63.33352
293.80,63.42750
294.00,63.57149
294.20,63.75373
294.40,63.91729
294.60,64.09746
294.80,64.30615
295.00,64.46059
295.20,64.61493
295.40,64.74798
295.60,64.91694
295.80,64.97493
296.00,64.96885
296.20,64.91144
296.40,64.91231
296.60,64.79232
296.80,64.65113
297.00,64.52670
297.20,64.44771
297.40,64.26994
297.60,64.05919
297.80,63.95847
298.00,63.74623
298.20,63.59481
298.40,63.42153
298.60,63.38831
298.80,63.33409
299.00,63.29195
299.20,63.25933
299.40,63.19433
299.60,63.14870
299.80,63.09353
300.00,63.15426
300.20,63.18876
300.40,63.25285
300.60,63.31312
300.80,63.45098
301.00,63.62334
301.20,63.70985
301.40,63.94851
301.60,64.14912
301.80,64.25236
302.00,64.27664
302.20,64.47850
302.40,64.58370
302.60,64.74502
302.80,64.89575
303.00,65.14304
303.20,65.27715
303.40,65.41222
303.60,65.46209
303.80,65.53245
304.00,65.51834
304.20,65.39241
304.40,65.35976
304.60,65.35465
304.80,65.32688
305.00,65.18712
305.20,65.21720
305.40,65.10189
305.60,64.94105
305.80,64.73133
306.00,64.53350
306.20,64.35928
306.40,64.12470
306.60,64.01377
306.80,63.90007
307.00,63.86880
307.20,63.78751
307.40,63.77919
307.60,63.59835
307.80,63.54458
308.00,63.48351
308.20,63.38082
308.40,63.33824
308.60,63.40007
308.80,63.40610
309.00,63.56404
309.20,63.57893
309.40,63.69140
309.60,63.84241
309.80,63.98861
310.00,64.03273
310.20,64.27609
310.40,64.46178
310.60,64.55918
310.80,64.66563
311.00,64.82075
311.20,64.87367
311.40,64.95515
311.60,65.08113
311.80,65.21611
312.00,65.37601
312.20,65.54435
312.40,65.71734
312.60,65.83214
312.80,65.88593
313.00,65.80657
313.20,65.84994
313.40,65.82211
313.60,65.81089
313.80,65.88973
314.00,65.96927
314.20,65.90934
314.40,65.78683
314.60,65.64524
314.80,65.50145
315.00,65.33212
315.20,65.23854
315.40,65.14972
315.60,65.01175
315.80,64.77627
316.00,64.51137
316.20,64.30495
316.40,64.14201
316.60,64.06876
316.80,64.07473
317.00,64.10343
317.20,64.13788
317.40,64.10542
317.60,64.04392
317.80,63.98490
318.00,63.97458
318.20,63.88717
318.40,63.87821
318.60,63.85704
318.80,63.92956
319.00,64.02283
319.20,64.18536
319.40,64.33023
319.60,64.50302
319.80,64.62898
320.00,64.77482
320.20,64.88467
320.40,64.99880
320.60,65.16478
320.80,65.40595
321.00,65.57499
321.20,65.75450
321.40,65.97508
321.60,66.09259
321.80,66.19514
322.00,66.28938
322.20,66.33745
322.40,66.33000
322.60,66.42268
322.80,66.33183
323.00,66.34688
323.20,66.33303
323.40,66.33421
323.60,66.21796
323.80,66.26117
324.00,66.11679
324.20,65.98845
324.40,65.92497
324.60,65.94368
324.80,65.82674
325.00,65.74353
325.20,65.72886
325.40,65.51698
325.60,65.38091
325.80,65.16691
326.00,65.10585
326.20,64.98419
326.40,64.86326
326.60,64.76220
326.80,64.67460
327.00,64.50160
327.20,64.29966
327.40,64.32716
327.60,64.25368
327.80,64.22465
328.00,64.17009
328.20,64.22496
328.40,64.20602
328.60,64.26640
328.80,64.29905
329.00,64.49271
329.20,64.57708
329.40,64.67639
329.60,64.77083
329.80,64.95957
330.00,64.99593
330.20,65.16964
330.40,65.27145
330.60,65.36679
330.80,65.57735
331.00,65.80260
331.20,65.95976
331.40,66.17342
331.60,66.33516
331.80,66.38213
332.00,66.50118
332.20,66.53333
332.40,66.62737
332.60,66.66718
332.80,66.79634
333.00,66.73155
333.20,66.78345
333.40,66.83550
333.60,66.95473
333.80,66.92958
334.00,67.04766
334.20,67.06827
334.40,67.05143
334.60,66.93054
334.80,66.83139
335.00,66.77254
335.20,66.71739
335.40,66.57055
335.60,66.50843
335.80,66.44564
336.00,66.28050
336.20,66.07982
336.40,65.88556
336.60,65.70774
336.80,65.49107
337.00,65.31589
337.20,65.24312
337.40,65.14504
337.60,65.07917
337.80,65.04399
338.00,64.99894
338.20,65.01505
338.40,65.01572
338.60,64.93345
338.80,64.86822
339.00,64.83920
339.20,64.74246
339.40,64.71527
339.60,64.65305
339.80,64.74190
340.00,64.87700
340.20,64.95819
340.40,65.03636
340.60,65.23895
340.80,65.28119
341.00,65.33877
341.20,65.41816
341.40,65.53042
341.60,65.63151
341.80,65.79835
342.00,65.96391
342.20,66.11802
342.40,66.28443
342.60,66.44533
342.80,66.65170
343.00,66.74615
343.20,66.92106
343.40,67.08864
343.60,67.21534
343.80,67.25318
344.00,67.34020
344.20,67.36608
344.40,67.42510
344.60,67.53137
344.80,67.61410
345.00,67.66239
345.20,67.76878
345.40,67.83974
345.60,67.78203
345.80,67.74232
346.00,67.77852
346.20,67.68869
346.40,67.53502
346.60,67.44281
346.80,67.35741
347.00,67.20558
347.20,67.06694
347.40,66.97826
347.60,66.89095
347.80,66.72344
348.00,66.61012
348.20,66.50559
348.40,66.32938
348.60,66.21250
348.80,66.09587
349.00,65.91591
349.20,65.80448
349.40,65.72168
349.60,65.55911
349.80,65.53648
350.00,65.48334
350.20,65.38832
350.40,65.32546
350.60,65.34450
350.80,65.25938
351.00,65.22852
351.20,65.21076
351.40,65.19386
351.60,65.18489
351.80,65.21263
352.00,65.26421
352.20,65.30318
352.40,65.35253
352.60,65.38350
352.80,65.45165
353.00,65.56538
353.20,65.67960
353.40,65.82816
353.60,66.01631
353.80,66.14237
354.00,66.30705
354.20,66.42281
354.40,66.59104
354.60,66.68513
354.80,66.85274
355.00,66.92470
355.20,67.07859
355.40,67.15277
355.60,67.27287
355.80,67.37943
356.00,67.50584
356.20,67.58542
356.40,67.67907
356.60,67.72725
356.80,67.81279
357.00,67.86574
357.20,67.97321
357.40,68.06610
357.60,68.12414
357.80,68.15510
358.00,68.23788
358.20,68.24306
358.40,68.15060
358.60,68.13654
358.80,68.08445
359.00,68.01362
359.20,67.90832
359.40,67.92393
359.60,67.78589
359.80,67.66341
360.00,67.53376
360.20,67.45510
360.40,67.29461
360.60,67.28691
360.80,67.16669
361.00,67.00698
361.20,66.83897
361.40,66.68187
361.60,66.45540
361.80,66.33097
362.00,66.25322
362.20,66.15233
362.40,66.06740
362.60,66.05141
362.80,65.96420
363.00,65.79219
363.20,65.65903
363.40,65.53190
363.60,65.38914
363.80,65.36269
364.00,65.35233
364.20,65.35277
364.40,65.36189
364.60,65.37148
364.80,65.36672
365.00,65.40579
365.20,65.40310
365.40,65.48837
365.60,65.52104
365.80,65.55166
366.00,65.62043
366.20,65.79830
366.40,65.82900
366.60,65.90456
366.80,66.07599
367.00,66.16951
367.20,66.20347
367.40,66.32715
367.60,66.52719
367.80,66.56301
368.00,66.74277
368.20,66.94744
368.40,67.14936
368.60,67.24641
368.80,67.45961
369.00,67.59444
369.20,67.66404
369.40,67.75572
369.60,67.93431
369.80,67.97524
370.00,68.03997
370.20,68.12745
370.40,68.29355
370.60,68.30624
370.80,68.43720
371.00,68.51566
371.20,68.58287
371.40,68.55607
371.60,68.59981
371.80,68.52500
372.00,68.51524
372.20,68.48817
372.40,68.41435
372.60,68.34182
372.80,68.30403
373.00,68.19857
373.20,68.11053
373.40,68.09447
373.60,67.99605
373.80,67.89196
374.00,67.80583
374.20,67.73687
374.40,67.56377
374.60,67.45589
374.80,67.36115
375.00,67.27526
375.20,67.14150
375.40,67.02050
375.60,66.91211
375.80,66.78862
376.00,66.60119
376.20,66.47922
376.40,66.36395
376.60,66.24382
376.80,66.12769
377.00,66.05216
377.20,65.94518
377.40,65.88356
377.60,65.82868
377.80,65.75695
378.00,65.73582
378.20,65.73293
378.40,65.70596
378.60,65.64846
378.80,65.65084
379.00,65.62484
379.20,65.60053
379.40,65.56875
379.60,65.59213
379.80,65.61182
380.00,65.62963
380.20,65.65707
380.40,65.74302
380.60,65.80471
380.80,65.88243
381.00,65.97286
381.20,66.07311
381.40,66.19273
381.60,66.29350
381.80,66.42238
382.00,66.53036
382.20,66.65257
382.40,66.72026
382.60,66.85720
382.80,66.99657
383.00,67.15643
383.20,67.29167
383.40,67.41447
383.60,67.52301
383.80,67.60479
384.00,67.69134
384.20,67.78493
384.40,67.92327
384.60,68.00652
384.80,68.15133
385.00,68.23622
385.20,68.33283
385.40,68.43190
385.60,68.57145
385.80,68.59332
386.00,68.71144
386.20,68.76982
386.40,68.82700
386.60,68.85208
386.80,68.92014
387.00,68.89399
387.20,68.93719
387.40,68.86137
387.60,68.80089
387.80,68.71338
388.00,68.68504
388.20,68.58302
388.40,68.53258
388.60,68.49858
388.80,68.45234
389.00,68.34117
389.20,68.24011
389.40,68.18466
389.60,68.07072
389.80,67.97103
390.00,67.87648
390.20,67.81798
390.40,67.69515
390.60,67.60542
390.80,67.45992
391.00,67.32551
391.20,67.17482
391.40,67.03064
391.60,66.89978
391.80,66.82799
392.00,66.72212
392.20,66.60837
392.40,66.50957
392.60,66.42215
392.80,66.33726
393.00,66.29680
393.20,66.22996
393.40,66.16151
393.60,66.12450
393.80,66.03048
394.00,65.95030
394.20,65.91794
394.40,65.89575
394.60,65.80391
394.80,65.80864
395.00,65.78671
395.20,65.79440
395.40,65.82924
395.60,65.88121
395.80,65.92362
396.00,65.97443
396.20,66.00058
396.40,66.04669
396.60,66.11573
396.80,66.14120
397.00,66.20238
397.20,66.27812
397.40,66.36429
397.60,66.48102
397.80,66.63840
398.00,66.76180
398.20,66.90317
398.40,67.03215
398.60,67.11434
398.80,67.20698
399.00,67.31113
399.20,67.42533
399.40,67.52300
399.60,67.63951
399.80,67.75736
400.00,67.90687
400.20,68.01270
400.40,68.15684
400.60,68.28385
400.80,68.37207
401.00,68.48077
401.20,68.57786
401.40,68.65875
401.60,68.73207
401.80,68.83238
402.00,68.89989
402.20,69.00663
402.40,69.03946
402.60,69.13961
402.80,69.21995
403.00,69.24589
403.20,69.24349
403.40,69.27291
403.60,69.26690
403.80,69.24269
404.00,69.22531
404.20,69.21849
404.40,69.22107
404.60,69.23122
404.80,69.20221
405.00,69.21268
405.20,69.20536
405.40,69.14357
405.60,68.99333
405.80,68.93699
406.00,68.82194
406.20,68.69818
406.40,68.64479
406.60,68.61191
406.80,68.52372
407.00,68.42698
407.20,68.36061
407.40,68.26786
407.60,68.16551
407.80,68.07065
408.00,67.99477
408.20,67.87513
408.40,67.68825
408.60,67.58972
408.80,67.45690
409.00,67.38784
409.20,67.28605
409.40,67.22617
409.60,67.10625
409.80,66.99055
410.00,66.88353
410.20,66.79549
410.40,66.69489
410.60,66.64421
410.80,66.59477
411.00,66.50885
411.20,66.46192
411.40,66.45032
411.60,66.40748
411.80,66.41295
412.00,66.41985
412.20,66.40547
412.40,66.39934
412.60,66.39357
412.80,66.34977
413.00,66.30249
413.20,66.30164
413.40,66.27781
413.60,66.25934
413.80,66.29481
414.00,66.36633
414.20,66.39463
414.40,66.50228
414.60,66.61349
414.80,66.72162
415.00,66.79462
415.20,66.94349
415.40,67.03721
415.60,67.08704
415.80,67.17442
416.00,67.29646
416.20,67.36837
416.40,67.44488
416.60,67.64129
416.80,67.78785
417.00,67.90420
417.20,68.03041
417.40,68.19306
417.60,68.28792
417.80,68.39314
418.00,68.50425
418.20,68.64855
418.40,68.77154
418.60,68.93750
418.80,69.08316
419.00,69.26512
419.20,69.38438
419.40,69.48972
419.60,69.54833
419.80,69.61523
420.00,69.64717
420.20,69.70705
420.40,69.79683
420.60,69.87574
420.80,69.95667
421.00,70.02503
421.20,70.10736
421.40,70.11991
421.60,70.17056
421.80,70.20010
422.00,70.25368
422.20,70.28345
422.40,70.30030
422.60,70.30075
422.80,70.32678
423.00,70.31198
423.20,70.25959
423.40,70.28658
423.60,70.26372
423.80,70.20557
424.00,70.15694
424.20,70.16093
424.40,70.11485
424.60,70.05318
424.80,70.01518
425.00,69.94385
425.20,69.83988
425.40,69.73866
425.60,69.65511
425.80,69.52078
426.00,69.43526
426.20,69.36458
426.40,69.23094
426.60,69.12457
426.80,69.02717
427.00,68.93477
427.20,68.82668
427.40,68.76832
427.60,68.67707
427.80,68.62705
428.00,68.50556
428.20,68.40700
428.40,68.31306
428.60,68.24844
428.80,68.12447
429.00,68.05217
429.20,67.96322
429.40,67.88405
429.60,67.80285
429.80,67.74387
430.00,67.67110
430.20,67.60924
430.40,67.54948
430.60,67.48238
430.80,67.46255
431.00,67.42042
431.20,67.40352
431.40,67.40591
431.60,67.40991
431.80,67.39223
432.00,67.42864
432.20,67.40804
432.40,67.36639
432.60,67.32249
432.80,67.29779
433.00,67.31380
433.20,67.32991
433.40,67.38298
433.60,67.45601
433.80,67.54774
434.00,67.60666
434.20,67.67597
434.40,67.72268
434.60,67.80294
434.80,67.84045
435.00,67.85591
435.20,67.94855
435.40,68.03508
435.60,68.12172
435.80,68.21495
436.00,68.37365
436.20,68.45763
436.40,68.56633
436.60,68.66370
436.80,68.78557
437.00,68.85599
437.20,68.95474
437.40,69.04296
437.60,69.16744
437.80,69.27925
438.00,69.39552
438.20,69.49813
438.40,69.63890
438.60,69.72871
438.80,69.83790
439.00,69.96100
439.20,70.11191
439.40,70.20327
439.60,70.30823
439.80,70.41100
440.00,70.51414
440.20,70.57098
440.40,70.66084
440.60,70.74561
440.80,70.79860
441.00,70.82512
441.20,70.88886
441.40,70.91594
441.60,70.95018
441.80,71.00851
442.00,71.04943
442.20,71.08737
442.40,71.13776
442.60,71.15151
442.80,71.16930
443.00,71.18866
443.20,71.18729
443.40,71.19639
443.60,71.20346
443.80,71.15642
444.00,71.13183
444.20,71.07631
444.40,71.01166
444.60,70.91113
444.80,70.88162
445.00,70.81745
445.20,70.74917
445.40,70.70915
445.60,70.68154
445.80,70.56787
446.00,70.49425
446.20,70.42993
446.40,70.32850
446.60,70.25568
446.80,70.21259
447.00,70.14067
447.20,70.05105
447.40,69.95441
447.60,69.84572
447.80,69.71866
448.00,69.61166
448.20,69.52150
448.40,69.43676
448.60,69.35394
448.80,69.26601
449.00,69.16621
449.20,69.08224
449.40,68.98363
449.60,68.85755
449.80,68.76216
450.00,68.67752
450.20,68.57657
450.40,68.49223
450.60,68.42562
450.80,68.34992
451.00,68.27235
451.20,68.21713
451.40,68.14339
451.60,68.10465
451.80,68.08474
452.00,68.01607
452.20,67.94558
452.40,67.91937
452.60,67.86004
452.80,67.79976
453.00,67.76274
453.20,67.75112
453.40,67.71500
453.60,67.68845
453.80,67.68264
454.00,67.70068
454.20,67.67510
454.40,67.68578
454.60,67.70091
454.80,67.71945
455.00,67.72494
455.20,67.76599
455.40,67.81031
455.60,67.84148
455.80,67.89012
456.00,67.95070
456.20,68.00643
456.40,68.03377
456.60,68.10997
456.80,68.16725
457.00,68.22831
457.20,68.31499
457.40,68.38845
457.60,68.45695
457.80,68.52040
458.00,68.61131
458.20,68.73391
458.40,68.83080
458.60,68.93277
458.80,69.05777
459.00,69.15711
459.20,69.22280
459.40,69.32474
459.60,69.41516
459.80,69.51759
460.00,69.63472
460.20,69.74602
460.40,69.86165
460.60,69.98778
460.80,70.08476
461.00,70.15035
461.20,70.22468
461.40,70.31918
461.60,70.40501
461.80,70.49145
462.00,70.60980
462.20,70.68583
462.40,70.75857
462.60,70.85630
462.80,70.92854
463.00,70.99516
463.20,71.06360
463.40,71.17488
463.60,71.21789
463.80,71.30119
464.00,71.36607
464.20,71.44203
464.40,71.49514
464.60,71.55167
464.80,71.54341
465.00,71.55163
465.20,71.56090
465.40,71.54014
465.60,71.53584
465.80,71.55931
466.00,71.54971
466.20,71.55033
466.40,71.53732
466.60,71.56561
466.80,71.53969
467.00,71.54435
467.20,71.51604
467.40,71.49373
467.60,71.42958
467.80,71.40681
468.00,71.34655
468.20,71.30046
468.40,71.20450
468.60,71.14260
468.80,71.07089
469.00,71.01585
469.20,70.92797
469.40,70.86753
469.60,70.75866
469.80,70.66203
470.00,70.56822
470.20,70.49620
470.40,70.42462
470.60,70.34578
470.80,70.24927
471.00,70.15079
471.20,70.05101
471.40,69.95054
471.60,69.86372
471.80,69.77504
472.00,69.70432
472.20,69.59275
472.40,69.51649
472.60,69.43484
472.80,69.36747
473.00,69.26558
473.20,69.19035
473.40,69.10343
473.60,69.01155
473.80,68.90592
474.00,68.83228
474.20,68.75455
474.40,68.67899
474.60,68.58779
474.80,68.53763
475.00,68.45215
475.20,68.40782
475.40,68.31980
475.60,68.29891
475.80,68.25275
476.00,68.22693
476.20,68.18327
476.40,68.17992
476.60,68.11981
476.80,68.06574
477.00,68.00983
477.20,67.98818
477.40,67.93873
477.60,67.91947
477.80,67.91139
478.00,67.93082
478.20,67.91102
478.40,67.91937
478.60,67.92906
478.80,67.93913
479.00,67.92527
479.20,67.92231
479.40,67.94169
479.60,67.97175
479.80,67.99913
480.00,68.02189
480.20,68.07937
480.40,68.11774
480.60,68.15276
480.80,68.19128
481.00,68.26912
481.20,68.33037
481.40,68.39935
481.60,68.46643
481.80,68.52493
482.00,68.58502
482.20,68.63774
482.40,68.68981
482.60,68.76052
482.80,68.85448
483.00,68.94796
483.20,69.04472
483.40,69.15515
483.60,69.25169
483.80,69.34322
484.00,69.42577
484.20,69.51002
484.40,69.57395
484.60,69.66314
484.80,69.74229
485.00,69.84408
485.20,69.94130
485.40,70.04038
485.60,70.11672
485.80,70.21787
486.00,70.30371
486.20,70.39558
486.40,70.49111
486.60,70.58219
486.80,70.67419
487.00,70.74944
487.20,70.82385
487.40,70.89285
487.60,70.99662
487.80,71.06372
488.00,71.13816
488.20,71.22722
488.40,71.29961
488.60,71.34264
488.80,71.40080
489.00,71.46500
489.20,71.50270
489.40,71.55010
489.60,71.60693
489.80,71.63339
490.00,71.66750
490.20,71.73390
490.40,71.77143
490.60,71.79739
490.80,71.84092
491.00,71.85047
491.20,71.84331
491.40,71.86037
491.60,71.84660
491.80,71.85771
492.00,71.87061
492.20,71.87603
492.40,71.84798
492.60,71.86087
492.80,71.81541
493.00,71.78527
493.20,71.75391
493.40,71.74156
493.60,71.68862
493.80,71.66680
494.00,71.62554
494.20,71.57255
494.40,71.51964
494.60,71.47772
494.80,71.43043
495.00,71.38377
495.20,71.31919
495.40,71.24535
495.60,71.16221
495.80,71.07222
496.00,70.96384
496.20,70.88509
496.40,70.82022
496.60,70.75842
496.80,70.70217
497.00,70.64689
497.20,70.59187
497.40,70.50093
497.60,70.41185
497.80,70.32747
498.00,70.24596
498.20,70.13683
498.40,70.05947
498.60,69.97504
498.80,69.89180
499.00,69.79634
499.20,69.72166
499.40,69.64647
499.60,69.55925
499.80,69.47154
500.00,69.36851
500.20,69.29215
500.40,69.19389
500.60,69.09883
500.80,69.02646
501.00,68.98431
501.20,68.91221
501.40,68.84077
501.60,68.80467
501.80,68.74287
502.00,68.67393
502.20,68.59406
502.40,68.54662
502.60,68.47809
502.80,68.40878
503.00,68.36742
503.20,68.31151
503.40,68.26229
503.60,68.21655
503.80,68.18112
504.00,68.13664
504.20,68.12415
504.40,68.09515
504.60,68.04739
504.80,68.03719
505.00,68.02805
505.20,68.01095
505.40,67.99347
505.60,68.01012
505.80,67.99803
506.00,67.98417
506.20,67.96797
506.40,67.99155
506.60,68.01795
506.80,68.03290
507.00,68.05695
507.20,68.08167
507.40,68.10158
507.60,68.12587
507.80,68.15060
508.00,68.20235
508.20,68.25596
508.40,68.27356
508.60,68.32625
508.80,68.38377
509.00,68.43013
509.20,68.48382
509.40,68.55550
509.60,68.62456
509.80,68.67687
510.00,68.73943
510.20,68.79258
510.40,68.87296
510.60,68.92524
510.80,68.99990
511.00,69.07538
511.20,69.17546
511.40,69.24676
511.60,69.32618
511.80,69.39417
512.00,69.44728
512.20,69.50808
512.40,69.58923
512.60,69.66119
512.80,69.76259
513.00,69.85447
513.20,69.94566
513.40,70.03177
513.60,70.13887
513.80,70.21514
514.00,70.31242
514.20,70.38795
514.40,70.48588
514.60,70.55845
514.80,70.62572
515.00,70.69218
515.20,70.77252
515.40,70.82654
515.60,70.89910
515.80,70.99801
516.00,71.07323
516.20,71.17076
516.40,71.23247
516.60,71.30342
516.80,71.36949
517.00,71.41994
517.20,71.44345
517.40,71.52483
517.60,71.57934
517.80,71.61763
518.00,71.67847
518.20,71.73414
518.40,71.78712
518.60,71.82010
518.80,71.87150
519.00,71.90459
519.20,71.93860
519.40,71.95573
519.60,71.96885
519.80,71.96116
520.00,71.97383
520.20,71.96811
520.40,71.95138
520.60,71.95860
520.80,71.98097
521.00,71.96732
521.20,71.98336
521.40,71.99251
521.60,71.99099
521.80,71.95323
522.00,71.95387
522.20,71.92562
522.40,71.90065
522.60,71.87532
522.80,71.85227
523.00,71.82988
523.20,71.81886
523.40,71.78475
523.60,71.75961
523.80,71.72794
524.00,71.67079
524.20,71.58600
524.40,71.51670
524.60,71.43566
524.80,71.40031
525.00,71.35381
525.20,71.31323
525.40,71.25194
525.60,71.17004
525.80,71.10109
526.00,71.00590
526.20,70.95000
526.40,70.90962
526.60,70.86079
526.80,70.77520
527.00,70.68959
527.20,70.59441
527.40,70.48454
527.60,70.39683
527.80,70.30509
528.00,70.25255
528.20,70.14346
528.40,70.06438
528.60,69.99796
528.80,69.94039
529.00,69.84423
529.20,69.80755
529.40,69.73948
529.60,69.66506
529.80,69.57455
530.00,69.48119
530.20,69.40470
530.40,69.32722
530.60,69.24978
530.80,69.16337
531.00,69.12010
531.20,69.03107
531.40,68.97264
531.60,68.88683
531.80,68.82628
532.00,68.78533
532.20,68.74167
532.40,68.66896
532.60,68.62114
532.80,68.56758
533.00,68.47177
533.20,68.39967
533.40,68.35477
533.60,68.32483
533.80,68.28681
534.00,68.26567
534.20,68.23918
534.40,68.20335
534.60,68.15971
534.80,68.15540
535.00,68.15025
535.20,68.14334
535.40,68.14101
535.60,68.13462
535.80,68.11480
536.00,68.07808
536.20,68.09628
536.40,68.07780
536.60,68.05380
536.80,68.04711
537.00,68.07320
537.20,68.04387
537.40,68.06445
537.60,68.10240
537.80,68.08385
538.00,68.10348
538.20,68.10619
538.40,68.09708
538.60,68.11632
538.80,68.16779
539.00,68.17357
539.20,68.20421
539.40,68.23943
539.60,68.25896
539.80,68.31516
540.00,68.37679
540.20,68.43910
540.40,68.50780
540.60,68.54470
540.80,68.58760
541.00,68.62795
541.20,68.66989
541.40,68.71194
541.60,68.79131
541.80,68.83004
542.00,68.89018
542.20,68.94652
542.40,68.99827
542.60,69.06006
542.80,69.12589
543.00,69.17528
543.20,69.27410
543.40,69.35414
543.60,69.41270
543.80,69.46793
544.00,69.54893
544.20,69.60086
544.40,69.66542
544.60,69.73403
544.80,69.80804
545.00,69.87907
545.20,69.94472
545.40,70.01264
545.60,70.08798
545.80,70.18270
546.00,70.25936
546.20,70.33171
546.40,70.42634
546.60,70.49822
546.80,70.56171
547.00,70.63210
547.20,70.68975
547.40,70.76030
547.60,70.85397
547.80,70.90971
548.00,70.98439
548.20,71.06854
548.40,71.13337
548.60,71.19017
548.80,71.27196
549.00,71.33926
549.20,71.40100
549.40,71.47648
549.60,71.52562
549.80,71.59450
550.00,71.65198
550.20,71.71732
550.40,71.73679
550.60,71.78673
550.80,71.84442
551.00,71.87424
551.20,71.91885
551.40,71.96255
551.60,72.00879
551.80,72.03256
552.00,72.08195
552.20,72.10172
552.40,72.13941
552.60,72.15474
552.80,72.15043
553.00,72.14156
553.20,72.15158
553.40,72.15543
553.60,72.16361
553.80,72.19322
554.00,72.20282
554.20,72.20565
554.40,72.20473
554.60,72.17330
554.80,72.16516
555.00,72.15138
555.20,72.14413
555.40,72.13143
555.60,72.13684
555.80,72.09151
556.00,72.05315
556.20,72.03228
556.40,72.00091
556.60,71.97105
556.80,71.94776
557.00,71.93197
557.20,71.89034
557.40,71.82149
557.60,71.78112
557.80,71.71645
558.00,71.66216
558.20,71.59141
558.40,71.56597
558.60,71.48973
558.80,71.43486
559.00,71.40383
559.20,71.36399
559.40,71.30933
559.60,71.27960
559.80,71.22021
560.00,71.14659
560.20,71.07042
560.40,70.99612
560.60,70.89826
560.80,70.82900
561.00,70.75148
561.20,70.66789
561.40,70.60717
561.60,70.53550
561.80,70.49471
562.00,70.43759
562.20,70.38701
562.40,70.32619
562.60,70.25356
562.80,70.18004
563.00,70.10239
563.20,70.03989
563.40,69.94312
563.60,69.91826
563.80,69.82597
564.00,69.74235
564.20,69.65972
564.40,69.60835
564.60,69.52531
564.80,69.46776
565.00,69.40911
565.20,69.36542
565.40,69.28578
565.60,69.21574
565.80,69.17531
566.00,69.10738
566.20,69.03000
566.40,68.98814
566.60,68.92285
566.80,68.86107
567.00,68.81962
567.20,68.77531
567.40,68.70744
567.60,68.67144
567.80,68.63970
568.00,68.57923
568.20,68.52310
568.40,68.50317
568.60,68.46225
568.80,68.40952
569.00,68.38225
569.20,68.35441
569.40,68.33191
569.60,68.32365
569.80,68.26617
570.00,68.24731
570.20,68.20753
570.40,68.18807
570.60,68.13899
570.80,68.13022
571.00,68.12662
571.20,68.14654
571.40,68.13552
571.60,68.13027
571.80,68.15949
572.00,68.14549
572.20,68.14818
572.40,68.12356
572.60,68.15463
572.80,68.12822
573.00,68.16411
573.20,68.15052
573.40,68.18158
573.60,68.16992
573.80,68.19362
574.00,68.17815
574.20,68.20674
574.40,68.23627
574.60,68.27114
574.80,68.30914
575.00,68.34530
575.20,68.38801
575.40,68.40999
575.60,68.44596
575.80,68.49131
576.00,68.52574
576.20,68.56964
576.40,68.63155
576.60,68.65930
576.80,68.69627
577.00,68.77213
577.20,68.82540
577.40,68.86464
577.60,68.92722
577.80,69.00123
578.00,69.05437
578.20,69.08292
578.40,69.14204
578.60,69.21177
578.80,69.24623
579.00,69.28572
579.20,69.35108
579.40,69.39670
579.60,69.44926
579.80,69.51234
580.00,69.57908
580.20,69.66386
580.40,69.73440
580.60,69.81248
580.80,69.89168
581.00,69.94914
581.20,69.99460
581.40,70.05381
581.60,70.10731
581.80,70.16316
582.00,70.23416
582.20,70.32339
582.40,70.40288
582.60,70.47585
582.80,70.53666
583.00,70.60607
583.20,70.65370
583.40,70.72592
583.60,70.80408
583.80,70.90080
584.00,70.96715
584.20,71.04634
584.40,71.10955
584.60,71.16830
584.80,71.20460
585.00,71.27058
585.20,71.35827
585.40,71.42794
585.60,71.49490
585.80,71.57695
586.00,71.63330
586.20,71.66691
586.40,71.71209
586.60,71.75803
586.80,71.76988
587.00,71.83400
587.20,71.88628
587.40,71.93481
587.60,71.97965
587.80,72.05544
588.00,72.07147
588.20,72.08018
588.40,72.12209
588.60,72.16195
588.80,72.19162
589.00,72.24140
589.20,72.29320
589.40,72.30791
589.60,72.35339
589.80,72.37911
590.00,72.40384
590.20,72.42451
590.40,72.47009
590.60,72.45119
590.80,72.46791
591.00,72.51017
591.20,72.52098
591.40,72.52674
591.60,72.55590
591.80,72.58068
592.00,72.55230
592.20,72.56480
592.40,72.56205
592.60,72.53740
592.80,72.52786
593.00,72.54039
593.20,72.52762
593.40,72.50929
593.60,72.49861
593.80,72.49248
594.00,72.46611
594.20,72.45726
594.40,72.43655
594.60,72.44295
594.80,72.38969
595.00,72.36946
595.20,72.31095
595.40,72.29661
595.60,72.26048
595.80,72.24459
596.00,72.21410
596.20,72.21333
596.40,72.17088
596.60,72.13837
596.80,72.08819
597.00,72.04048
597.20,71.97140
597.40,71.91334
597.60,71.86028
597.80,71.80229
598.00,71.74349
598.20,71.69957
598.40,71.65499
598.60,71.60305
598.80,71.54070
599.00,71.48001
599.20,71.40607
599.40,71.34075
599.60,71.27838
599.80,71.20398
600.00,71.14683
600.20,71.10232
600.40,71.04568
600.60,70.97784
600.80,70.93813
601.00,70.88237
601.20,70.82298
601.40,70.76648
601.60,70.69767
601.80,70.65061
602.00,70.58051
602.20,70.51264
602.40,70.44408
602.60,70.38661
602.80,70.28831
603.00,70.23149
603.20,70.16823
603.40,70.10315
603.60,70.04075
603.80,69.99791
604.00,69.92398
604.20,69.85207
604.40,69.78670
604.60,69.72057
604.80,69.67461
605.00,69.64308
605.20,69.58963
605.40,69.51643
605.60,69.43817
605.80,69.39130
606.00,69.33066
606.20,69.29225
606.40,69.26147
606.60,69.23780
606.80,69.17832
607.00,69.11076
607.20,69.06474
607.40,69.03324
607.60,68.98682
607.80,68.94370
608.00,68.90068
608.20,68.87243
608.40,68.85737
608.60,68.83115
608.80,68.82015
609.00,68.81652
609.20,68.77604
609.40,68.74033
609.60,68.72023
609.80,68.66695
610.00,68.63418
610.20,68.59643
610.40,68.53698
610.60,68.50020
610.80,68.51259
611.00,68.48927
611.20,68.49352
611.40,68.49302
611.60,68.48839
611.80,68.44361
612.00,68.42961
612.20,68.40703
612.40,68.39687
612.60,68.38478
612.80,68.38608
613.00,68.41980
613.20,68.40960
613.40,68.42534
613.60,68.44628
613.80,68.45923
614.00,68.44409
614.20,68.47640
614.40,68.45779
614.60,68.46453
614.80,68.48684
615.00,68.50104
615.20,68.53979
615.40,68.57198
615.60,68.57031
615.80,68.58718
616.00,68.60312
616.20,68.60915
616.40,68.63841
616.60,68.69613
616.80,68.71016
617.00,68.73346
617.20,68.74532
617.40,68.79137
617.60,68.81478
617.80,68.84834
618.00,68.90450
618.20,68.95943
618.40,68.98847
618.60,69.01960
618.80,69.09174
619.00,69.11440
619.20,69.16270
619.40,69.19956
619.60,69.25575
619.80,69.28487
620.00,69.35311
620.20,69.40968
620.40,69.47172
620.60,69.53436
620.80,69.59139
621.00,69.63744
621.20,69.70492
621.40,69.77101
621.60,69.82939
621.80,69.86564
622.00,69.92191
622.20,69.95978
622.40,70.01629
622.60,70.07018
622.80,70.17741
623.00,70.22734
623.20,70.30315
623.40,70.36766
623.60,70.41640
623.80,70.46754
624.00,70.56786
624.20,70.62070
624.40,70.67671
624.60,70.74696
624.80,70.80367
625.00,70.84187
625.20,70.90201
625.40,70.97806
625.60,71.05302
625.80,71.12675
626.00,71.18983
626.20,71.25163
626.40,71.30209
626.60,71.34256
626.80,71.38611
627.00,71.46193
627.20,71.52431
627.40,71.57636
627.60,71.65971
627.80,71.70756
628.00,71.74577
628.20,71.79022
628.40,71.84232
628.60,71.88284
628.80,71.95018
629.00,71.99699
629.20,72.05446
629.40,72.11239
629.60,72.16629
629.80,72.22078
630.00,72.28695
630.20,72.31061
630.40,72.35146
630.60,72.38243
630.80,72.42211
631.00,72.44248
631.20,72.49481
631.40,72.54190
631.60,72.60172
631.80,72.63449
632.00,72.67952
632.20,72.71429
632.40,72.73598
632.60,72.75465
632.80,72.76262
633.00,72.81799
633.20,72.85680
633.40,72.89066
633.60,72.87208
633.80,72.92125
634.00,72.90807
634.20,72.94748
634.40,72.99418
634.60,73.03500
634.80,73.04195
635.00,73.05894
635.20,73.04036
635.40,73.02573
635.60,73.04391
635.80,73.04240
636.00,73.06668
636.20,73.06907
636.40,73.07490
636.60,73.05319
636.80,73.05399
637.00,73.04069
637.20,73.05189
637.40,73.06632
637.60,73.08693
637.80,73.07263
638.00,73.05112
638.20,73.04739
638.40,73.01300
638.60,72.96042
638.80,72.92434
639.00,72.89371
639.20,72.86061
639.40,72.83925
639.60,72.85272
639.80,72.84578
640.00,72.80867
640.20,72.75876
640.40,72.69897
640.60,72.65353
640.80,72.63126
641.00,72.61418
641.20,72.60614
641.40,72.57252
641.60,72.52608
641.80,72.47233
642.00,72.44279
642.20,72.40508
642.40,72.37086
642.60,72.36470
642.80,72.33088
643.00,72.31776
643.20,72.26439
643.40,72.21767
643.60,72.15810
643.80,72.08584
644.00,72.00985
644.20,71.96158
644.40,71.92413
644.60,71.88832
644.80,71.86933
645.00,71.81922
645.20,71.75963
645.40,71.70286
645.60,71.63050
645.80,71.56020
646.00,71.49158
646.20,71.43628
646.40,71.39469
646.60,71.32939
646.80,71.29920
647.00,71.25539
647.20,71.18803
647.40,71.13465
647.60,71.09851
647.80,71.02513
648.00,70.98380
648.20,70.95342
648.40,70.91113
648.60,70.86840
648.80,70.83943
649.00,70.77745
649.20,70.73936
649.40,70.67513
649.60,70.63439
649.80,70.54954
650.00,70.47265
650.20,70.40337
650.40,70.35474
650.60,70.29836
650.80,70.28323
651.00,70.24831
651.20,70.21327
651.40,70.15147
651.60,70.10002
651.80,70.03242
652.00,70.00626
652.20,69.94936
652.40,69.93142
652.60,69.87191
652.80,69.85267
653.00,69.82940
653.20,69.75558
653.40,69.69898
653.60,69.68157
653.80,69.61315
654.00,69.56893
654.20,69.56372
654.40,69.54332
654.60,69.46599
654.80,69.45046
655.00,69.39845
655.20,69.35387
655.40,69.35057
655.60,69.36574
655.80,69.35775
656.00,69.34555
656.20,69.34822
656.40,69.30863
656.60,69.27624
656.80,69.27668
657.00,69.26821
657.20,69.25066
657.40,69.23100
657.60,69.21712
657.80,69.16231
658.00,69.15584
658.20,69.14529
658.40,69.12079
658.60,69.10782
658.80,69.10540
659.00,69.07091
659.20,69.05572
659.40,69.05239
659.60,69.04744
659.80,69.05413
660.00,69.05038
660.20,69.07182
660.40,69.06039
660.60,69.07820
660.80,69.08438
661.00,69.10238
661.20,69.08425
661.40,69.09834
661.60,69.09482
661.80,69.13048
662.00,69.15658
662.20,69.18185
662.40,69.17914
662.60,69.19623
662.80,69.16866
663.00,69.19499
663.20,69.19972
663.40,69.23866
663.60,69.27122
663.80,69.30609
664.00,69.33087
664.20,69.39009
664.40,69.41499
664.60,69.46286
664.80,69.48237
665.00,69.50119
665.20,69.52687
665.40,69.56362
665.60,69.60070
665.80,69.65423
666.00,69.65893
666.20,69.69249
666.40,69.72823
666.60,69.74988
666.80,69.78725
667.00,69.84361
667.20,69.87697
667.40,69.95996
667.60,70.02482
667.80,70.05683
668.00,70.11098
668.20,70.16323
668.40,70.22200
668.60,70.24898
668.80,70.34546
669.00,70.43495
669.20,70.49137
669.40,70.49008
669.60,70.55357
669.80,70.58781
670.00,70.60940
670.20,70.70024
670.40,70.79253
670.60,70.83412
670.80,70.88640
671.00,70.96640
671.20,70.96280
671.40,71.01082
671.60,71.08332
671.80,71.13699
672.00,71.14912
672.20,71.24206
672.40,71.28918
672.60,71.33846
672.80,71.35615
673.00,71.42882
673.20,71.46404
673.40,71.51217
673.60,71.56448
673.80,71.63696
674.00,71.69070
674.20,71.80487
674.40,71.87712
674.60,71.89535
674.80,72.01154
675.00,72.08015
675.20,72.08204
675.40,72.14826
675.60,72.23694
675.80,72.30176
676.00,72.37739
676.20,72.44130
676.40,72.50487
676.60,72.56184
676.80,72.57385
677.00,72.63173
677.20,72.70690
677.40,72.74150
677.60,72.78978
677.80,72.84917
678.00,72.89894
678.20,72.92323
678.40,72.99520
678.60,73.09172
678.80,73.17269
679.00,73.20091
679.20,73.27307
679.40,73.36110
679.60,73.39613
679.80,73.43284
680.00,73.52302
680.20,73.59309
680.40,73.61832
680.60,73.68045
680.80,73.72417
681.00,73.73083
681.20,73.74039
681.40,73.76529
681.60,73.79178
681.80,73.83726
682.00,73.90651
682.20,73.98371
682.40,74.03404
682.60,74.09794
682.80,74.13590
683.00,74.18804
683.20,74.22640
683.40,74.24992
683.60,74.27303
683.80,74.33435
684.00,74.35341
684.20,74.36327
684.40,74.37050
684.60,74.42093
684.80,74.44344
685.00,74.47580
685.20,74.51507
685.40,74.55641
685.60,74.54863
685.80,74.53963
686.00,74.54167
686.20,74.57201
686.40,74.61244
686.60,74.65495
686.80,74.71031
687.00,74.72779
687.20,74.72410
687.40,74.73515
687.60,74.73183
687.80,74.71303
688.00,74.75083
688.20,74.78747
688.40,74.80094
688.60,74.79076
688.80,74.78877
689.00,74.80821
689.20,74.81847
689.40,74.85183
689.60,74.89021
689.80,74.92384
690.00,74.89707
690.20,74.84283
690.40,74.80767
690.60,74.78834
690.80,74.74398
691.00,74.71855
691.20,74.75111
691.40,74.72703
691.60,74.70891
691.80,74.74774
692.00,74.71616
692.20,74.66240
692.40,74.61659
692.60,74.61000
692.80,74.58908
693.00,74.60118
693.20,74.59908
693.40,74.59881
693.60,74.60520
693.80,74.58700
694.00,74.54076
694.20,74.53945
694.40,74.53283
694.60,74.47807
694.80,74.41338
695.00,74.39150
695.20,74.32182
695.40,74.30963
695.60,74.26777
695.80,74.24956
696.00,74.25277
696.20,74.29063
696.40,74.25869
696.60,74.23834
696.80,74.21564
697.00,74.15221
697.20,74.16853
697.40,74.13493
697.60,74.10883
697.80,74.04959
698.00,74.05388
698.20,73.92614
698.40,73.85986
698.60,73.84416
698.80,73.84799
699.00,73.78452
699.20,73.80011
699.40,73.83794
699.60,73.74262
699.80,73.72472
700.00,73.70092
700.20,73.64721
700.40,73.57533
700.60,73.61287
700.80,73.56481
701.00,73.56019
701.20,73.49286
701.40,73.44229
701.60,73.36317
701.80,73.29832
702.00,73.22417
702.20,73.20707
702.40,73.23482
702.60,73.18271
702.80,73.19884
703.00,73.18001
703.20,73.16023
703.40,73.12251
703.60,73.15759
703.80,73.09311
704.00,73.09319
704.20,73.05806
704.40,72.97060
704.60,72.97074
704.80,72.95963
705.00,72.87329
705.20,72.80522
705.40,72.79303
705.60,72.71038
705.80,72.69012
706.00,72.73390
706.20,72.77830
706.40,72.72104
706.60,72.66617
706.80,72.60402
707.00,72.57870
707.20,72.52927
707.40,72.51995
707.60,72.50465
707.80,72.48982
708.00,72.43136
708.20,72.37762
708.40,72.36685
708.60,72.29900
708.80,72.24634
709.00,72.17806
709.20,72.19884
709.40,72.22262
709.60,72.25688
709.80,72.26754
710.00,72.29573
710.20,72.23943
710.40,72.17521
710.60,72.14742
710.80,72.14821
711.00,72.13035
711.20,72.11260
711.40,72.12154
711.60,72.19737
711.80,72.20616
712.00,72.22935
712.20,72.27306
712.40,72.23114
712.60,72.18592
712.80,72.13860
713.00,72.08039
713.20,72.05426
713.40,72.06106
713.60,72.04098
713.80,72.05411
714.00,72.11018
714.20,72.09960
714.40,72.10546
714.60,72.15042
714.80,72.16270
715.00,72.14873
715.20,72.13719
715.40,72.11983
715.60,72.12749
715.80,72.13528
716.00,72.09547
716.20,72.13691
716.40,72.16159
716.60,72.11265
716.80,72.08630
717.00,72.15557
717.20,72.16359
717.40,72.19071
717.60,72.20554
717.80,72.22558
718.00,72.21587
718.20,72.25717
718.40,72.33690
718.60,72.37626
718.80,72.44417
719.00,72.50075
719.20,72.44918
719.40,72.36748
719.60,72.35014
719.80,72.36621
720.00,72.37694
720.20,72.51515
720.40,72.61464
720.60,72.66149
720.80,72.66240
721.00,72.70182
721.20,72.66434
721.40,72.65636
721.60,72.71544
721.80,72.77282
722.00,72.83918
722.20,72.83018
722.40,72.86146
722.60,72.89183
722.80,72.96440
723.00,72.98270
723.20,73.07458
723.40,73.09902
723.60,73.14361
723.80,73.13687
724.00,73.16660
724.20,73.20919
724.40,73.29915
724.60,73.32870
724.80,73.39150
725.00,73.44494
725.20,73.47016
725.40,73.50494
725.60,73.55394
725.80,73.57842
726.00,73.56129
726.20,73.61805
726.40,73.66151
726.60,73.72186
726.80,73.73328
727.00,73.86365
727.20,73.88344
727.40,73.90971
727.60,73.90460
727.80,73.96557
728.00,73.93110
728.20,74.01063
728.40,74.09918
728.60,74.16652
728.80,74.22177
729.00,74.31080
729.20,74.37727
729.40,74.37891
729.60,74.48193
729.80,74.51155
730.00,74.52989
730.20,74.53918
730.40,74.59375
730.60,74.61183
730.80,74.73714
731.00,74.80296
731.20,74.84794
731.40,74.89630
731.60,74.95469
731.80,74.98747
732.00,75.06154
732.20,75.09001
732.40,75.20092
732.60,75.29596
732.80,75.33248
733.00,75.38270
733.20,75.46936
733.40,75.47011
733.60,75.46156
733.80,75.50949
734.00,75.53681
734.20,75.58082
734.40,75.62864
734.60,75.66211
734.80,75.69172
735.00,75.74009
735.20,75.84023
735.40,75.86945
735.60,75.91841
735.80,75.97533
736.00,76.04212
736.20,76.04384
736.40,76.11753
736.60,76.15309
736.80,76.25899
737.00,76.28207
737.20,76.37289
737.40,76.44082
737.60,76.51166
737.80,76.47070
738.00,76.56704
738.20,76.60118
738.40,76.60533
738.60,76.65530
738.80,76.71665
739.00,76.72233
739.20,76.67586
739.40,76.71825
739.60,76.71478
739.80,76.75160
740.00,76.79293
740.20,76.86937
740.40,76.92822
740.60,76.96977
740.80,77.00737
741.00,77.04170
741.20,77.08901
741.40,77.04873
741.60,77.07472
741.80,77.09472
742.00,77.06405
742.20,77.02817
742.40,77.16469
742.60,77.18263
742.80,77.29039
743.00,77.39416
743.20,77.46871
743.40,77.46073
743.60,77.48348
743.80,77.43847
744.00,77.34421
744.20,77.40130
744.40,77.38762
744.60,77.50176
744.80,77.47148
745.00,77.51305
745.20,77.53267
745.40,77.60310
745.60,77.56197
745.80,77.64358
746.00,77.69808
746.20,77.64056
746.40,77.59022
746.60,77.53825
746.80,77.53897
747.00,77.56331
747.20,77.57421
747.40,77.57320
747.60,77.61705
747.80,77.56865
748.00,77.57565
748.20,77.61340
748.40,77.68095
748.60,77.67907
748.80,77.72086
749.00,77.71512
749.20,77.69414
749.40,77.67799
749.60,77.71004
749.80,77.76607
750.00,77.80050
750.20,77.85029
750.40,77.82762
750.60,77.84626
750.80,77.71305
751.00,77.66369
751.20,77.57252
751.40,77.60805
751.60,77.51152
751.80,77.54685
752.00,77.54683
752.20,77.55693
752.40,77.41922
752.60,77.43608
752.80,77.40614
753.00,77.38424
753.20,77.35866
753.40,77.41387
753.60,77.40616
753.80,77.38591
754.00,77.37234
754.20,77.36690
754.40,77.35429
754.60,77.37787
754.80,77.41519
755.00,77.34743
755.20,77.32489
755.40,77.26855
755.60,77.17018
755.80,77.09482
756.00,77.11121
756.20,77.07683
756.40,77.06352
756.60,77.09590
756.80,77.07527
757.00,77.03903
757.20,77.09257
757.40,77.05601
757.60,76.99482
757.80,76.97151
758.00,76.92779
758.20,76.80223
758.40,76.77828
758.60,76.73907
758.80,76.69773
759.00,76.70220
759.20,76.76626
759.40,76.79033
759.60,76.81450
759.80,76.79149
760.00,76.70051
760.20,76.56950
760.40,76.49207
760.60,76.36272
760.80,76.31605
761.00,76.29296
761.20,76.26773
761.40,76.20561
761.60,76.15868
761.80,76.15860
762.00,76.15091
762.20,76.04220
762.40,75.98088
762.60,75.97740
762.80,75.88896
763.00,75.74800
763.20,75.77284
763.40,75.72142
763.60,75.73422
763.80,75.66674
764.00,75.71904
764.20,75.66743
764.40,75.68440
764.60,75.66620
764.80,75.68836
765.00,75.67950
765.20,75.66171
765.40,75.57952
765.60,75.48709
765.80,75.43773
766.00,75.35343
766.20,75.31430
766.40,75.33370
766.60,75.24562
766.80,75.16655
767.00,75.13531
767.20,75.17345
767.40,75.14956
767.60,75.21010
767.80,75.25485
768.00,75.23356
768.20,75.07918
768.40,75.04384
768.60,74.90614
768.80,74.84407
769.00,74.77968
769.20,74.78644
769.40,74.72548
769.60,74.66728
769.80,74.56406
770.00,74.45436
770.20,74.37366
770.40,74.31907
770.60,74.40943
770.80,74.36611
771.00,74.39169
771.20,74.40646
771.40,74.34896
771.60,74.28670
771.80,74.33150
772.00,74.25708
772.20,74.27609
772.40,74.24521
772.60,74.21620
772.80,74.16629
773.00,74.16579
773.20,74.09156
773.40,74.19644
773.60,74.12708
773.80,74.12916
774.00,74.16075
774.20,74.09194
774.40,74.04220
774.60,73.99783
774.80,73.86990
775.00,73.78423
775.20,73.82795
775.40,73.73234
775.60,73.75173
775.80,73.85093
776.00,73.86000
776.20,73.82780
776.40,73.82507
776.60,73.76915
776.80,73.73418
777.00,73.72069
777.20,73.71741
777.40,73.66954
777.60,73.65782
777.80,73.61058
778.00,73.64009
778.20,73.60573
778.40,73.67763
778.60,73.67537
778.80,73.72965
779.00,73.65434
779.20,73.60098
779.40,73.61655
779.60,73.61279
779.80,73.53624
780.00,73.54952
780.20,73.62221
780.40,73.52673
780.60,73.54987
780.80,73.53941
781.00,73.59052
781.20,73.55205
781.40,73.51936
781.60,73.54154
781.80,73.60342
782.00,73.54558
782.20,73.55697
782.40,73.54903
782.60,73.52180
782.80,73.49341
783.00,73.50594
783.20,73.39809
783.40,73.43976
783.60,73.43153
783.80,73.43567
784.00,73.48889
784.20,73.60222
784.40,73.61700
784.60,73.60591
784.80,73.60437
785.00,73.54339
785.20,73.58606
785.40,73.55542
785.60,73.56503
785.80,73.49772
786.00,73.51722
786.20,73.48015
786.40,73.49786
786.60,73.54863
786.80,73.63743
787.00,73.77461
787.20,73.83827
787.40,73.82897
787.60,73.87361
787.80,73.79009
788.00,73.63774
788.20,73.62802
788.40,73.69532
788.60,73.71377
788.80,73.84524
789.00,73.95540
789.20,73.93755
789.40,73.91090
789.60,73.95082
789.80,73.97317
790.00,73.93346
790.20,74.02839
790.40,74.04497
790.60,74.00216
790.80,73.98325
791.00,74.02316
791.20,73.98501
791.40,74.07877
791.60,74.07606
791.80,74.00506
792.00,74.03708
792.20,74.08556
792.40,74.04632
792.60,74.07058
792.80,74.23073
793.00,74.19414
793.20,74.23345
793.40,74.28367
793.60,74.36485
793.80,74.39134
794.00,74.52306
794.20,74.51609
794.40,74.52468
794.60,74.55546
794.80,74.52306
795.00,74.58551
795.20,74.58755
795.40,74.69819
795.60,74.73262
795.80,74.88217
796.00,74.88877
796.20,75.01721
796.40,75.02499
796.60,75.02894
796.80,74.94566
797.00,75.00038
797.20,75.07246
797.40,75.03273
797.60,75.05956
797.80,75.18989
798.00,75.10733
798.20,75.04385
798.40,75.06676
798.60,75.00175
798.80,75.03202
799.00,75.12920
799.20,75.17338
799.40,75.27993
799.60,75.42595
799.80,75.41485
800.00,75.43419
