"Resin Sapphire Slow 2 - RawData"
"Wavelength nm.","T%"
200.00,49.19643
200.20,49.27119
200.40,49.39119
200.60,49.52109
200.80,50.02148
201.00,50.56670
201.20,50.88526
201.40,50.92610
201.60,50.85327
201.80,50.55445
202.00,50.17061
202.20,49.98954
202.40,50.07256
202.60,50.36610
202.80,50.41296
203.00,50.47822
203.20,50.64623
203.40,50.62289
203.60,50.81465
203.80,51.07880
204.00,51.30645
204.20,51.25486
204.40,51.33713
204.60,51.27929
204.80,51.42487
205.00,51.50856
205.20,51.81422
205.40,52.30286
205.60,52.40214
205.80,52.37122
206.00,52.55546
206.20,52.48767
206.40,52.49520
206.60,52.58486
206.80,52.75626
207.00,52.97022
207.20,52.94256
207.40,52.61167
207.60,52.54797
207.80,52.52678
208.00,52.38922
208.20,52.53242
208.40,52.55044
208.60,52.69892
208.80,52.68863
209.00,52.65387
209.20,52.75398
209.40,53.06455
209.60,52.97981
209.80,53.18443
210.00,53.31804
210.20,53.20364
210.40,53.21908
210.60,53.19032
210.80,53.24765
211.00,53.31804
211.20,53.53267
211.40,53.53827
211.60,53.70175
211.80,53.82401
212.00,53.64405
212.20,53.52715
212.40,53.47448
212.60,53.63352
212.80,53.69246
213.00,53.80191
213.20,53.74203
213.40,53.81022
213.60,53.85611
213.80,53.76576
214.00,53.92633
214.20,54.08724
214.40,54.17302
214.60,54.16021
214.80,54.02993
215.00,53.82239
215.20,53.96330
215.40,53.87232
215.60,53.68400
215.80,53.77811
216.00,54.03588
216.20,53.79418
216.40,54.03500
216.60,54.11726
216.80,54.11654
217.00,53.84969
217.20,54.06605
217.40,53.77927
217.60,53.73604
217.80,53.66071
218.00,53.79407
218.20,53.68796
218.40,53.83942
218.60,53.99808
218.80,54.05861
219.00,54.18944
219.20,54.26664
219.40,54.42861
219.60,54.26729
219.80,54.36421
220.00,54.23707
220.20,54.34755
220.40,54.15010
220.60,54.31083
220.80,54.24940
221.00,54.37992
221.20,54.35088
221.40,54.47538
221.60,54.40372
221.80,54.48387
222.00,54.46606
222.20,54.41700
222.40,54.39175
222.60,54.57531
222.80,54.61223
223.00,54.66851
223.20,54.65769
223.40,54.69385
223.60,54.58878
223.80,54.49778
224.00,54.51171
224.20,54.52297
224.40,54.57252
224.60,54.58940
224.80,54.65742
225.00,54.69908
225.20,54.64070
225.40,54.59016
225.60,54.70023
225.80,54.89157
226.00,55.02918
226.20,55.15370
226.40,55.27391
226.60,55.18557
226.80,55.08010
227.00,54.96151
227.20,55.07390
227.40,55.05825
227.60,55.23549
227.80,55.30895
228.00,55.44256
228.20,55.33872
228.40,55.29282
228.60,55.13524
228.80,55.15133
229.00,55.05137
229.20,54.96560
229.40,55.02846
229.60,55.06228
229.80,55.10560
230.00,55.13759
230.20,55.30671
230.40,55.45605
230.60,55.54850
230.80,55.59171
231.00,55.64692
231.20,55.70439
231.40,55.58671
231.60,55.60741
231.80,55.57095
232.00,55.56422
232.20,55.67006
232.40,55.74139
232.60,55.76704
232.80,55.89488
233.00,55.88878
233.20,55.85346
233.40,55.83521
233.60,55.96436
233.80,55.95166
234.00,56.08517
234.20,56.12192
234.40,56.29820
234.60,56.23918
234.80,56.30186
235.00,56.31115
235.20,56.43931
235.40,56.31999
235.60,56.42808
235.80,56.39294
236.00,56.39060
236.20,56.38051
236.40,56.43296
236.60,56.44776
236.80,56.51052
237.00,56.50515
237.20,56.53610
237.40,56.65452
237.60,56.60431
237.80,56.65899
238.00,56.79183
238.20,56.78367
238.40,56.72716
238.60,56.75343
238.80,56.72899
239.00,56.67829
239.20,56.79569
239.40,56.82896
239.60,56.91084
239.80,56.97430
240.00,57.00184
240.20,56.91885
240.40,56.99704
240.60,56.98086
240.80,57.04666
241.00,57.20586
241.20,57.24580
241.40,57.20491
241.60,57.25118
241.80,57.26622
242.00,57.24801
242.20,57.30237
242.40,57.39120
242.60,57.42258
242.80,57.51068
243.00,57.53034
243.20,57.60378
243.40,57.61621
243.60,57.70969
243.80,57.65324
244.00,57.69761
244.20,57.74074
244.40,57.86094
244.60,57.87049
244.80,57.96775
245.00,57.97874
245.20,57.98972
245.40,58.01734
245.60,58.04089
245.80,58.02113
246.00,58.13853
246.20,58.13981
246.40,58.17251
246.60,58.26328
246.80,58.30955
247.00,58.27256
247.20,58.34682
247.40,58.31709
247.60,58.28730
247.80,58.29323
248.00,58.31332
248.20,58.30647
248.40,58.37529
248.60,58.43936
248.80,58.45799
249.00,58.50318
249.20,58.60771
249.40,58.63909
249.60,58.54753
249.80,58.58056
250.00,58.61223
250.20,58.52178
250.40,58.54594
250.60,58.70268
250.80,58.72237
251.00,58.73966
251.20,58.85505
251.40,58.92559
251.60,58.87210
251.80,58.95035
252.00,58.92119
252.20,58.94132
252.40,58.96122
252.60,59.05502
252.80,59.05129
253.00,59.08869
253.20,58.99429
253.40,59.03924
253.60,59.05975
253.80,59.10504
254.00,59.17600
254.20,59.30831
254.40,59.19306
254.60,59.20106
254.80,59.16448
255.00,59.15949
255.20,59.23117
255.40,59.39001
255.60,59.48958
255.80,59.55082
256.00,59.47626
256.20,59.41041
256.40,59.38914
256.60,59.30137
256.80,59.23364
257.00,59.32277
257.20,59.39978
257.40,59.37911
257.60,59.37251
257.80,59.39645
258.00,59.41681
258.20,59.40571
258.40,59.41664
258.60,59.42867
258.80,59.46779
259.00,59.45391
259.20,59.44102
259.40,59.43088
259.60,59.53349
259.80,59.62397
260.00,59.73574
260.20,59.73041
260.40,59.79184
260.60,59.74308
260.80,59.76188
261.00,59.77753
261.20,59.86581
261.40,59.94623
261.60,59.97872
261.80,60.02792
262.00,60.06713
262.20,60.02964
262.40,59.98705
262.60,60.07810
262.80,59.98496
263.00,59.97885
263.20,60.02282
263.40,59.97297
263.60,59.91882
263.80,60.00043
264.00,60.03927
264.20,60.00130
264.40,60.04183
264.60,60.03820
264.80,59.96474
265.00,59.90396
265.20,59.95584
265.40,59.98548
265.60,59.98371
265.80,60.03437
266.00,60.03544
266.20,59.97576
266.40,59.95886
266.60,59.98116
266.80,59.99792
267.00,59.94061
267.20,60.00597
267.40,59.98714
267.60,59.99990
267.80,60.02610
268.00,60.10787
268.20,60.11069
268.40,60.16169
268.60,60.14886
268.80,60.11131
269.00,60.11075
269.20,60.04928
269.40,60.00783
269.60,60.08484
269.80,60.10550
270.00,60.16772
270.20,60.16104
270.40,60.16536
270.60,60.13019
270.80,60.18353
271.00,60.10652
271.20,60.25837
271.40,60.36410
271.60,60.39654
271.80,60.38100
272.00,60.46655
272.20,60.39419
272.40,60.41097
272.60,60.35315
272.80,60.36738
273.00,60.25177
273.20,60.28128
273.40,60.22379
273.60,60.30141
273.80,60.25862
274.00,60.32773
274.20,60.34402
274.40,60.34502
274.60,60.29578
274.80,60.28484
275.00,60.22999
275.20,60.21236
275.40,60.16312
275.60,60.19698
275.80,60.27744
276.00,60.36811
276.20,60.37349
276.40,60.44555
276.60,60.49559
276.80,60.45864
277.00,60.41377
277.20,60.50742
277.40,60.52527
277.60,60.47214
277.80,60.54725
278.00,60.52982
278.20,60.35153
278.40,60.30932
278.60,60.30704
278.80,60.27638
279.00,60.37349
279.20,60.48351
279.40,60.52673
279.60,60.57956
279.80,60.52154
280.00,60.39897
280.20,60.35196
280.40,60.31362
280.60,60.24129
280.80,60.28756
281.00,60.33753
281.20,60.43169
281.40,60.39116
281.60,60.45418
281.80,60.37272
282.00,60.44591
282.20,60.40072
282.40,60.43310
282.60,60.37748
282.80,60.47482
283.00,60.38848
283.20,60.43620
283.40,60.52944
283.60,60.60569
283.80,60.64325
284.00,60.71511
284.20,60.66513
284.40,60.63505
284.60,60.65775
284.80,60.66366
285.00,60.68714
285.20,60.77944
285.40,60.81938
285.60,60.83482
285.80,60.82279
286.00,60.90847
286.20,60.90004
286.40,60.92302
286.60,60.94105
286.80,61.03319
287.00,61.07122
287.20,61.12309
287.40,61.15380
287.60,61.18546
287.80,61.13884
288.00,61.11181
288.20,61.09245
288.40,61.13126
288.60,61.16906
288.80,61.20121
289.00,61.23917
289.20,61.27211
289.40,61.34138
289.60,61.34284
289.80,61.33530
290.00,61.30970
290.20,61.29943
290.40,61.32047
290.60,61.27130
290.80,61.33797
291.00,61.41161
291.20,61.43015
291.40,61.39660
291.60,61.48075
291.80,61.53730
292.00,61.52063
292.20,61.54527
292.40,61.54653
292.60,61.58443
292.80,61.55552
293.00,61.59278
293.20,61.54706
293.40,61.59829
293.60,61.57281
293.80,61.54746
294.00,61.54546
294.20,61.62966
294.40,61.60414
294.60,61.59241
294.80,61.61565
295.00,61.68364
295.20,61.67256
295.40,61.65681
295.60,61.71925
295.80,61.77540
296.00,61.78811
296.20,61.85562
296.40,61.93089
296.60,61.92881
296.80,61.93876
297.00,61.95827
297.20,61.99584
297.40,62.05397
297.60,62.09607
297.80,62.11446
298.00,62.06191
298.20,62.00487
298.40,61.95835
298.60,62.00524
298.80,62.05739
299.00,62.07410
299.20,62.12758
299.40,62.12765
299.60,62.05447
299.80,62.00707
300.00,62.03824
300.20,61.98807
300.40,61.93816
300.60,61.95784
300.80,61.96055
301.00,61.96701
301.20,62.03596
301.40,62.13306
301.60,62.21893
301.80,62.28112
302.00,62.28251
302.20,62.25230
302.40,62.29150
302.60,62.26537
302.80,62.23873
303.00,62.32381
303.20,62.42443
303.40,62.37488
303.60,62.38018
303.80,62.43781
304.00,62.35419
304.20,62.31577
304.40,62.34143
304.60,62.42570
304.80,62.37246
305.00,62.34270
305.20,62.33065
305.40,62.29602
305.60,62.21454
305.80,62.16350
306.00,62.10786
306.20,62.08961
306.40,62.05253
306.60,62.01983
306.80,62.05897
307.00,62.14152
307.20,62.14837
307.40,62.22350
307.60,62.23938
307.80,62.21194
308.00,62.27685
308.20,62.22680
308.40,62.23450
308.60,62.26432
308.80,62.30126
309.00,62.32431
309.20,62.39533
309.40,62.34899
309.60,62.30376
309.80,62.39101
310.00,62.29107
310.20,62.31630
310.40,62.35865
310.60,62.35661
310.80,62.27276
311.00,62.35658
311.20,62.23713
311.40,62.24427
311.60,62.28343
311.80,62.35491
312.00,62.26199
312.20,62.29580
312.40,62.33841
312.60,62.33199
312.80,62.26571
313.00,62.37448
313.20,62.50703
313.40,62.52207
313.60,62.50545
313.80,62.67207
314.00,62.67421
314.20,62.67271
314.40,62.70629
314.60,62.79421
314.80,62.67760
315.00,62.67745
315.20,62.67114
315.40,62.61424
315.60,62.56700
315.80,62.56797
316.00,62.52813
316.20,62.49092
316.40,62.53387
316.60,62.64471
316.80,62.73077
317.00,62.75539
317.20,62.81874
317.40,62.77767
317.60,62.68373
317.80,62.68790
318.00,62.73795
318.20,62.66873
318.40,62.66583
318.60,62.69523
318.80,62.63204
319.00,62.59175
319.20,62.64754
319.40,62.70687
319.60,62.75755
319.80,62.83889
320.00,62.79083
320.20,62.80191
320.40,62.84915
320.60,62.77264
320.80,62.78496
321.00,62.88972
321.20,62.92422
321.40,62.91229
321.60,62.97387
321.80,62.93064
322.00,62.84965
322.20,62.77636
322.40,62.75594
322.60,62.71074
322.80,62.75803
323.00,62.93656
323.20,63.00829
323.40,62.99250
323.60,63.03652
323.80,63.09853
324.00,63.03645
324.20,63.00782
324.40,63.04523
324.60,63.18653
324.80,63.09945
325.00,63.13868
325.20,63.19796
325.40,63.19586
325.60,63.16778
325.80,63.18480
326.00,63.18902
326.20,63.20335
326.40,63.15455
326.60,63.09199
326.80,63.07375
327.00,62.96940
327.20,62.89173
327.40,63.00045
327.60,62.96943
327.80,63.00364
328.00,63.11565
328.20,63.18499
328.40,63.15342
328.60,63.26312
328.80,63.30402
329.00,63.29228
329.20,63.25447
329.40,63.33517
329.60,63.32124
329.80,63.32399
330.00,63.34766
330.20,63.46183
330.40,63.32477
330.60,63.31236
330.80,63.32160
331.00,63.33063
331.20,63.32808
331.40,63.49616
331.60,63.50077
331.80,63.50704
332.00,63.44587
332.20,63.39990
332.40,63.27729
332.60,63.26175
332.80,63.27012
333.00,63.24034
333.20,63.16341
333.40,63.30128
333.60,63.36697
333.80,63.40057
334.00,63.53216
334.20,63.67649
334.40,63.64646
334.60,63.62376
334.80,63.61841
335.00,63.66011
335.20,63.71433
335.40,63.63518
335.60,63.69496
335.80,63.73608
336.00,63.65691
336.20,63.54043
336.40,63.61220
336.60,63.49212
336.80,63.35047
337.00,63.35645
337.20,63.46477
337.40,63.42123
337.60,63.50912
337.80,63.67859
338.00,63.68879
338.20,63.64228
338.40,63.68687
338.60,63.72854
338.80,63.65495
339.00,63.69015
339.20,63.81335
339.40,63.85248
339.60,63.77102
339.80,63.77912
340.00,63.79781
340.20,63.75199
340.40,63.70671
340.60,63.77233
340.80,63.78664
341.00,63.81577
341.20,63.79531
341.40,63.79082
341.60,63.74578
341.80,63.78556
342.00,63.87410
342.20,63.84568
342.40,63.90995
342.60,63.98672
342.80,63.98316
343.00,63.88751
343.20,63.88338
343.40,63.87684
343.60,63.84776
343.80,63.84649
344.00,63.80748
344.20,63.85713
344.40,63.90240
344.60,63.89169
344.80,63.92457
345.00,63.93281
345.20,64.00209
345.40,63.98704
345.60,64.08278
345.80,64.09636
346.00,64.11585
346.20,64.00226
346.40,63.92556
346.60,63.84581
346.80,63.83589
347.00,63.86124
347.20,63.90447
347.40,63.97315
347.60,64.04606
347.80,64.01253
348.00,64.00276
348.20,63.96475
348.40,64.06752
348.60,64.05441
348.80,64.09444
349.00,64.09789
349.20,64.18629
349.40,64.10982
349.60,64.08015
349.80,64.10975
350.00,64.11183
350.20,64.10475
350.40,64.10269
350.60,64.09357
350.80,64.11717
351.00,64.17082
351.20,64.13993
351.40,64.15256
351.60,64.19017
351.80,64.14091
352.00,64.16709
352.20,64.16457
352.40,64.13394
352.60,64.11721
352.80,64.12196
353.00,64.09443
353.20,64.12278
353.40,64.21973
353.60,64.27120
353.80,64.24180
354.00,64.28528
354.20,64.30082
354.40,64.22072
354.60,64.24318
354.80,64.27536
355.00,64.24705
355.20,64.23686
355.40,64.23105
355.60,64.17917
355.80,64.16644
356.00,64.19991
356.20,64.24142
356.40,64.26122
356.60,64.33833
356.80,64.36128
357.00,64.30153
357.20,64.27817
357.40,64.32313
357.60,64.29797
357.80,64.28438
358.00,64.31730
358.20,64.31343
358.40,64.30948
358.60,64.24794
358.80,64.27458
359.00,64.27863
359.20,64.24531
359.40,64.23402
359.60,64.22815
359.80,64.17544
360.00,64.16718
360.20,64.24541
360.40,64.21192
360.60,64.32573
360.80,64.38507
361.00,64.40582
361.20,64.36719
361.40,64.37661
361.60,64.27571
361.80,64.26937
362.00,64.28536
362.20,64.27944
362.40,64.26227
362.60,64.32237
362.80,64.36658
363.00,64.34209
363.20,64.31661
363.40,64.30898
363.60,64.27661
363.80,64.20880
364.00,64.20478
364.20,64.25087
364.40,64.30179
364.60,64.32752
364.80,64.37389
365.00,64.38988
365.20,64.38013
365.40,64.36065
365.60,64.36296
365.80,64.29500
366.00,64.27510
366.20,64.31915
366.40,64.30225
366.60,64.24222
366.80,64.32539
367.00,64.37240
367.20,64.28007
367.40,64.34350
367.60,64.39589
367.80,64.36332
368.00,64.32002
368.20,64.38678
368.40,64.41336
368.60,64.42603
368.80,64.50819
369.00,64.53987
369.20,64.53087
369.40,64.52045
369.60,64.61648
369.80,64.56215
370.00,64.57042
370.20,64.52760
370.40,64.59904
370.60,64.51327
370.80,64.51274
371.00,64.51684
371.20,64.61146
371.40,64.52644
371.60,64.56906
371.80,64.53490
372.00,64.51316
372.20,64.44864
372.40,64.46481
372.60,64.42904
372.80,64.46636
373.00,64.44169
373.20,64.52178
373.40,64.55418
373.60,64.56672
373.80,64.55797
374.00,64.56852
374.20,64.55113
374.40,64.54468
374.60,64.54931
374.80,64.57219
375.00,64.65290
375.20,64.69801
375.40,64.67661
375.60,64.68090
375.80,64.67078
376.00,64.60146
376.20,64.54344
376.40,64.54798
376.60,64.53512
376.80,64.52116
377.00,64.55405
377.20,64.54818
377.40,64.53615
377.60,64.54237
377.80,64.57025
378.00,64.61506
378.20,64.64263
378.40,64.63509
378.60,64.63519
378.80,64.62409
379.00,64.55318
379.20,64.56007
379.40,64.55744
379.60,64.57481
379.80,64.57732
380.00,64.58895
380.20,64.55244
380.40,64.59272
380.60,64.57689
380.80,64.63534
381.00,64.67811
381.20,64.73207
381.40,64.73402
381.60,64.77596
381.80,64.74805
382.00,64.74858
382.20,64.68627
382.40,64.66933
382.60,64.63176
382.80,64.62201
383.00,64.61694
383.20,64.69083
383.40,64.71282
383.60,64.73091
383.80,64.74307
384.00,64.76904
384.20,64.75173
384.40,64.74275
384.60,64.72196
384.80,64.70841
385.00,64.66852
385.20,64.67252
385.40,64.68580
385.60,64.69737
385.80,64.68184
386.00,64.72147
386.20,64.75229
386.40,64.80662
386.60,64.82165
386.80,64.85010
387.00,64.83885
387.20,64.83524
387.40,64.77173
387.60,64.78691
387.80,64.79218
388.00,64.81274
388.20,64.79520
388.40,64.77198
388.60,64.75351
388.80,64.74739
389.00,64.71721
389.20,64.70128
389.40,64.74376
389.60,64.76187
389.80,64.78981
390.00,64.80612
390.20,64.82124
390.40,64.82869
390.60,64.83073
390.80,64.79998
391.00,64.79387
391.20,64.78994
391.40,64.80342
391.60,64.78583
391.80,64.84147
392.00,64.83986
392.20,64.84371
392.40,64.83498
392.60,64.84326
392.80,64.81897
393.00,64.85825
393.20,64.87479
393.40,64.89244
393.60,64.92363
393.80,64.91568
394.00,64.88432
394.20,64.91443
394.40,64.87045
394.60,64.84694
394.80,64.83138
395.00,64.80143
395.20,64.78865
395.40,64.85134
395.60,64.84761
395.80,64.85770
396.00,64.91747
396.20,64.91222
396.40,64.91160
396.60,64.91029
396.80,64.93582
397.00,64.90431
397.20,64.93416
397.40,64.90896
397.60,64.98222
397.80,65.01137
398.00,65.04214
398.20,65.02339
398.40,65.06985
398.60,65.02047
398.80,64.99766
399.00,65.00700
399.20,65.01793
399.40,65.00653
399.60,65.01768
399.80,65.06683
400.00,65.05122
400.20,65.04802
400.40,65.05868
400.60,65.09413
400.80,65.04018
401.00,65.10155
401.20,65.09178
401.40,65.07761
401.60,65.07644
401.80,65.10409
402.00,65.09264
402.20,65.15305
402.40,65.17185
402.60,65.16353
402.80,65.18824
403.00,65.16773
403.20,65.17513
403.40,65.17385
403.60,65.18928
403.80,65.20876
404.00,65.23802
404.20,65.24622
404.40,65.22977
404.60,65.23876
404.80,65.26845
405.00,65.25576
405.20,65.24396
405.40,65.28382
405.60,65.25962
405.80,65.23314
406.00,65.21513
406.20,65.18492
406.40,65.20491
406.60,65.26460
406.80,65.24774
407.00,65.26758
407.20,65.27346
407.40,65.26586
407.60,65.23975
407.80,65.26186
408.00,65.26688
408.20,65.30798
408.40,65.25468
408.60,65.27339
408.80,65.27942
409.00,65.32798
409.20,65.31165
409.40,65.36317
409.60,65.34721
409.80,65.33590
410.00,65.33091
410.20,65.34280
410.40,65.31205
410.60,65.33604
410.80,65.32369
411.00,65.31934
411.20,65.33576
411.40,65.38383
411.60,65.39937
411.80,65.47239
412.00,65.52462
412.20,65.54050
412.40,65.55467
412.60,65.55154
412.80,65.51633
413.00,65.48616
413.20,65.48958
413.40,65.47579
413.60,65.47769
413.80,65.50044
414.00,65.50579
414.20,65.47954
414.40,65.51678
414.60,65.52623
414.80,65.53464
415.00,65.52629
415.20,65.56930
415.40,65.58604
415.60,65.60441
415.80,65.61475
416.00,65.65446
416.20,65.65653
416.40,65.65651
416.60,65.67394
416.80,65.67073
417.00,65.64129
417.20,65.65815
417.40,65.65654
417.60,65.66955
417.80,65.69992
418.00,65.71852
418.20,65.74587
418.40,65.75350
418.60,65.75262
418.80,65.79337
419.00,65.84108
419.20,65.86064
419.40,65.89773
419.60,65.90592
419.80,65.90748
420.00,65.91897
420.20,65.92285
420.40,65.91583
420.60,65.93215
420.80,65.92931
421.00,65.95315
421.20,65.99161
421.40,65.99339
421.60,66.03118
421.80,66.05924
422.00,66.09096
422.20,66.06467
422.40,66.11754
422.60,66.12301
422.80,66.13705
423.00,66.14345
423.20,66.15622
423.40,66.17175
423.60,66.19988
423.80,66.23287
424.00,66.22036
424.20,66.25376
424.40,66.27838
424.60,66.28089
424.80,66.27067
425.00,66.31191
425.20,66.34474
425.40,66.35266
425.60,66.37083
425.80,66.39164
426.00,66.39937
426.20,66.40979
426.40,66.41616
426.60,66.40339
426.80,66.38927
427.00,66.40195
427.20,66.41028
427.40,66.41372
427.60,66.43497
427.80,66.47754
428.00,66.47110
428.20,66.48483
428.40,66.49320
428.60,66.53980
428.80,66.52617
429.00,66.51854
429.20,66.51008
429.40,66.52562
429.60,66.52158
429.80,66.52834
430.00,66.54326
430.20,66.54770
430.40,66.54456
430.60,66.54565
430.80,66.58167
431.00,66.61879
431.20,66.63458
431.40,66.66780
431.60,66.68811
431.80,66.70658
432.00,66.72428
432.20,66.72382
432.40,66.71774
432.60,66.66896
432.80,66.63391
433.00,66.61061
433.20,66.61513
433.40,66.61115
433.60,66.63965
433.80,66.66496
434.00,66.69375
434.20,66.70420
434.40,66.71617
434.60,66.73124
434.80,66.71056
435.00,66.70082
435.20,66.69952
435.40,66.70330
435.60,66.72221
435.80,66.74263
436.00,66.75738
436.20,66.75868
436.40,66.78331
436.60,66.76111
436.80,66.79750
437.00,66.78502
437.20,66.81076
437.40,66.79153
437.60,66.84039
437.80,66.83443
438.00,66.83281
438.20,66.81166
438.40,66.84983
438.60,66.83649
438.80,66.84349
439.00,66.86704
439.20,66.91722
439.40,66.91129
439.60,66.93355
439.80,66.91808
440.00,66.94443
440.20,66.91311
440.40,66.92457
440.60,66.91211
440.80,66.90718
441.00,66.88463
441.20,66.91036
441.40,66.88974
441.60,66.88901
441.80,66.90542
442.00,66.89343
442.20,66.89212
442.40,66.90468
442.60,66.91868
442.80,66.93627
443.00,66.95628
443.20,66.95870
443.40,66.97358
443.60,66.98323
443.80,66.96700
444.00,66.95115
444.20,66.95902
444.40,66.96981
444.60,66.95149
444.80,66.96327
445.00,66.98832
445.20,66.97622
445.40,66.97225
445.60,67.01900
445.80,66.99368
446.00,66.97922
446.20,66.97744
446.40,66.94968
446.60,66.92968
446.80,66.98380
447.00,66.98756
447.20,66.99732
447.40,67.02409
447.60,67.00305
447.80,66.98238
448.00,66.99989
448.20,67.01607
448.40,67.02183
448.60,67.04938
448.80,67.03363
449.00,67.05267
449.20,67.03210
449.40,67.03401
449.60,67.01990
449.80,67.02458
450.00,67.01047
450.20,67.03073
450.40,67.02019
450.60,67.03696
450.80,67.05387
451.00,67.04879
451.20,67.05906
451.40,67.05700
451.60,67.03085
451.80,67.03748
452.00,67.03530
452.20,67.01139
452.40,67.02833
452.60,67.05284
452.80,67.06532
453.00,67.07011
453.20,67.07049
453.40,67.05794
453.60,67.06787
453.80,67.08190
454.00,67.09660
454.20,67.10477
454.40,67.12726
454.60,67.11902
454.80,67.11815
455.00,67.13411
455.20,67.15419
455.40,67.17712
455.60,67.17696
455.80,67.16935
456.00,67.15813
456.20,67.14009
456.40,67.12449
456.60,67.12966
456.80,67.12914
457.00,67.13437
457.20,67.16129
457.40,67.15706
457.60,67.15204
457.80,67.15056
458.00,67.15161
458.20,67.15547
458.40,67.14069
458.60,67.14470
458.80,67.16383
459.00,67.16518
459.20,67.16766
459.40,67.19837
459.60,67.18096
459.80,67.17136
460.00,67.16797
460.20,67.16263
460.40,67.17057
460.60,67.21539
460.80,67.23307
461.00,67.24350
461.20,67.24640
461.40,67.22270
461.60,67.22670
461.80,67.23382
462.00,67.24632
462.20,67.24944
462.40,67.25308
462.60,67.22519
462.80,67.21889
463.00,67.21352
463.20,67.20673
463.40,67.21181
463.60,67.22815
463.80,67.24063
464.00,67.24365
464.20,67.25774
464.40,67.29222
464.60,67.29735
464.80,67.26393
465.00,67.27406
465.20,67.26800
465.40,67.24878
465.60,67.23554
465.80,67.26215
466.00,67.24968
466.20,67.26456
466.40,67.26670
466.60,67.31960
466.80,67.30942
467.00,67.32774
467.20,67.31685
467.40,67.31123
467.60,67.28922
467.80,67.29975
468.00,67.28947
468.20,67.29213
468.40,67.32162
468.60,67.33087
468.80,67.32103
469.00,67.34765
469.20,67.33512
469.40,67.29939
469.60,67.28840
469.80,67.29001
470.00,67.27756
470.20,67.29183
470.40,67.30682
470.60,67.30704
470.80,67.32299
471.00,67.32910
471.20,67.35780
471.40,67.35805
471.60,67.36773
471.80,67.35543
472.00,67.36094
472.20,67.35254
472.40,67.36345
472.60,67.35799
472.80,67.38369
473.00,67.38091
473.20,67.37374
473.40,67.37712
473.60,67.36982
473.80,67.34734
474.00,67.34208
474.20,67.33922
474.40,67.32157
474.60,67.31557
474.80,67.33260
475.00,67.32341
475.20,67.33358
475.40,67.33724
475.60,67.36794
475.80,67.36442
476.00,67.37370
476.20,67.37056
476.40,67.41596
476.60,67.39479
476.80,67.40230
477.00,67.40627
477.20,67.42781
477.40,67.40502
477.60,67.41655
477.80,67.41414
478.00,67.42212
478.20,67.41521
478.40,67.41512
478.60,67.43500
478.80,67.45045
479.00,67.44533
479.20,67.43979
479.40,67.43069
479.60,67.42681
479.80,67.42049
480.00,67.41282
480.20,67.42229
480.40,67.42760
480.60,67.41049
480.80,67.41666
481.00,67.42938
481.20,67.43954
481.40,67.45768
481.60,67.46995
481.80,67.45369
482.00,67.46063
482.20,67.44529
482.40,67.44188
482.60,67.43276
482.80,67.46032
483.00,67.48480
483.20,67.49418
483.40,67.50346
483.60,67.55109
483.80,67.53957
484.00,67.51930
484.20,67.52455
484.40,67.51646
484.60,67.47965
484.80,67.48425
485.00,67.48751
485.20,67.46985
485.40,67.45741
485.60,67.45575
485.80,67.46238
486.00,67.46613
486.20,67.49275
486.40,67.48809
486.60,67.49471
486.80,67.49343
487.00,67.47281
487.20,67.45749
487.40,67.47237
487.60,67.47639
487.80,67.47431
488.00,67.50256
488.20,67.51237
488.40,67.52121
488.60,67.51339
488.80,67.51065
489.00,67.49758
489.20,67.50071
489.40,67.49472
489.60,67.50850
489.80,67.50720
490.00,67.50749
490.20,67.51837
490.40,67.54194
490.60,67.53873
490.80,67.55344
491.00,67.55984
491.20,67.55865
491.40,67.55005
491.60,67.53834
491.80,67.53529
492.00,67.53723
492.20,67.54658
492.40,67.55788
492.60,67.60143
492.80,67.60466
493.00,67.60973
493.20,67.58394
493.40,67.57374
493.60,67.56580
493.80,67.56881
494.00,67.56665
494.20,67.57738
494.40,67.57936
494.60,67.57402
494.80,67.58099
495.00,67.58592
495.20,67.58110
495.40,67.56892
495.60,67.54393
495.80,67.51679
496.00,67.49666
496.20,67.50407
496.40,67.51821
496.60,67.54460
496.80,67.56386
497.00,67.58866
497.20,67.60620
497.40,67.58183
497.60,67.58339
497.80,67.58861
498.00,67.58299
498.20,67.56196
498.40,67.60356
498.60,67.59739
498.80,67.59959
499.00,67.60231
499.20,67.61496
499.40,67.61662
499.60,67.61308
499.80,67.61611
500.00,67.60303
500.20,67.60280
500.40,67.56600
500.60,67.55427
500.80,67.55737
501.00,67.57327
501.20,67.56184
501.40,67.57991
501.60,67.59979
501.80,67.58568
502.00,67.58530
502.20,67.58611
502.40,67.58863
502.60,67.59850
502.80,67.60567
503.00,67.61766
503.20,67.62459
503.40,67.60257
503.60,67.58389
503.80,67.58903
504.00,67.59467
504.20,67.60442
504.40,67.63390
504.60,67.62910
504.80,67.61791
505.00,67.61240
505.20,67.60682
505.40,67.60284
505.60,67.63275
505.80,67.64652
506.00,67.65550
506.20,67.64000
506.40,67.62980
506.60,67.59614
506.80,67.59077
507.00,67.55598
507.20,67.57743
507.40,67.58461
507.60,67.59848
507.80,67.61017
508.00,67.64071
508.20,67.62921
508.40,67.60347
508.60,67.60989
508.80,67.62181
509.00,67.62753
509.20,67.65593
509.40,67.68478
509.60,67.69501
509.80,67.68069
510.00,67.66842
510.20,67.65297
510.40,67.66106
510.60,67.64229
510.80,67.63294
511.00,67.63800
511.20,67.61975
511.40,67.60458
511.60,67.60380
511.80,67.60166
512.00,67.59722
512.20,67.61482
512.40,67.64284
512.60,67.64916
512.80,67.65428
513.00,67.64519
513.20,67.65999
513.40,67.63068
513.60,67.62483
513.80,67.61978
514.00,67.61938
514.20,67.60060
514.40,67.62093
514.60,67.65825
514.80,67.64962
515.00,67.65398
515.20,67.64997
515.40,67.63803
515.60,67.62836
515.80,67.64066
516.00,67.64194
516.20,67.65336
516.40,67.64364
516.60,67.66557
516.80,67.66109
517.00,67.65879
517.20,67.65208
517.40,67.66478
517.60,67.62238
517.80,67.64820
518.00,67.65218
518.20,67.65431
518.40,67.65474
518.60,67.65949
518.80,67.66133
519.00,67.66373
519.20,67.67491
519.40,67.66985
519.60,67.66130
519.80,67.64761
520.00,67.64491
520.20,67.64101
520.40,67.63894
520.60,67.65877
520.80,67.65641
521.00,67.65357
521.20,67.65597
521.40,67.67523
521.60,67.66915
521.80,67.65690
522.00,67.66613
522.20,67.63895
522.40,67.64906
522.60,67.65916
522.80,67.68755
523.00,67.69347
523.20,67.71797
523.40,67.69584
523.60,67.67955
523.80,67.65580
524.00,67.66185
524.20,67.64431
524.40,67.63279
524.60,67.61708
524.80,67.62997
525.00,67.62340
525.20,67.64277
525.40,67.66737
525.60,67.68193
525.80,67.68297
526.00,67.66987
526.20,67.67703
526.40,67.67175
526.60,67.68184
526.80,67.67758
527.00,67.67825
527.20,67.67855
527.40,67.64668
527.60,67.65355
527.80,67.64027
528.00,67.65041
528.20,67.64205
528.40,67.66346
528.60,67.65205
528.80,67.67959
529.00,67.67358
529.20,67.68295
529.40,67.70012
529.60,67.69584
529.80,67.69734
530.00,67.70841
530.20,67.70660
530.40,67.68947
530.60,67.69637
530.80,67.66989
531.00,67.68898
531.20,67.67867
531.40,67.68416
531.60,67.67018
531.80,67.70011
532.00,67.67709
532.20,67.70453
532.40,67.68904
532.60,67.72082
532.80,67.71218
533.00,67.72271
533.20,67.69293
533.40,67.73128
533.60,67.72442
533.80,67.69726
534.00,67.66504
534.20,67.69210
534.40,67.66831
534.60,67.69263
534.80,67.74430
535.00,67.77366
535.20,67.75835
535.40,67.77768
535.60,67.74672
535.80,67.73600
536.00,67.73813
536.20,67.76186
536.40,67.75580
536.60,67.78499
536.80,67.78446
537.00,67.78766
537.20,67.76865
537.40,67.79358
537.60,67.78066
537.80,67.77151
538.00,67.80913
538.20,67.82927
538.40,67.83049
538.60,67.83369
538.80,67.83385
539.00,67.78495
539.20,67.75923
539.40,67.73793
539.60,67.73601
539.80,67.75954
540.00,67.78238
540.20,67.81670
540.40,67.81822
540.60,67.82128
540.80,67.81626
541.00,67.81505
541.20,67.80232
541.40,67.79767
541.60,67.81339
541.80,67.80931
542.00,67.81662
542.20,67.82194
542.40,67.84312
542.60,67.82112
542.80,67.82674
543.00,67.81050
543.20,67.82354
543.40,67.82332
543.60,67.84676
543.80,67.82494
544.00,67.86196
544.20,67.84487
544.40,67.83917
544.60,67.81611
544.80,67.80123
545.00,67.77943
545.20,67.76655
545.40,67.75581
545.60,67.76388
545.80,67.78764
546.00,67.79421
546.20,67.80555
546.40,67.81310
546.60,67.81462
546.80,67.79746
547.00,67.76603
547.20,67.74656
547.40,67.73145
547.60,67.74973
547.80,67.78294
548.00,67.81476
548.20,67.85030
548.40,67.86739
548.60,67.84616
548.80,67.84542
549.00,67.84409
549.20,67.83372
549.40,67.83679
549.60,67.85721
549.80,67.86485
550.00,67.86429
550.20,67.87348
550.40,67.89019
550.60,67.88995
550.80,67.88433
551.00,67.86216
551.20,67.85575
551.40,67.82656
551.60,67.81915
551.80,67.82036
552.00,67.85002
552.20,67.86385
552.40,67.89605
552.60,67.88968
552.80,67.86740
553.00,67.84487
553.20,67.83024
553.40,67.81539
553.60,67.80578
553.80,67.82853
554.00,67.84041
554.20,67.86298
554.40,67.86123
554.60,67.86772
554.80,67.88902
555.00,67.89898
555.20,67.89445
555.40,67.90556
555.60,67.92512
555.80,67.91532
556.00,67.89777
556.20,67.87718
556.40,67.88815
556.60,67.88918
556.80,67.87085
557.00,67.88156
557.20,67.89030
557.40,67.86903
557.60,67.86330
557.80,67.84727
558.00,67.84698
558.20,67.81178
558.40,67.81002
558.60,67.77948
558.80,67.79317
559.00,67.80584
559.20,67.85383
559.40,67.85457
559.60,67.87761
559.80,67.87674
560.00,67.88393
560.20,67.86807
560.40,67.87516
560.60,67.86231
560.80,67.86931
561.00,67.87142
561.20,67.87742
561.40,67.87804
561.60,67.89464
561.80,67.89562
562.00,67.89253
562.20,67.89257
562.40,67.89834
562.60,67.89679
562.80,67.90172
563.00,67.86785
563.20,67.88651
563.40,67.88741
563.60,67.89067
563.80,67.88955
564.00,67.92256
564.20,67.90175
564.40,67.88461
564.60,67.86970
564.80,67.86751
565.00,67.87460
565.20,67.88272
565.40,67.90256
565.60,67.91693
565.80,67.92520
566.00,67.90666
566.20,67.91739
566.40,67.91109
566.60,67.92624
566.80,67.90748
567.00,67.90469
567.20,67.88161
567.40,67.87297
567.60,67.85992
567.80,67.89333
568.00,67.88543
568.20,67.90161
568.40,67.91148
568.60,67.91171
568.80,67.90773
569.00,67.94193
569.20,67.92629
569.40,67.94137
569.60,67.94584
569.80,67.91467
570.00,67.88228
570.20,67.87595
570.40,67.88788
570.60,67.88444
570.80,67.89257
571.00,67.92464
571.20,67.95129
571.40,67.94791
571.60,67.97082
571.80,67.99178
572.00,67.97365
572.20,67.97993
572.40,67.96343
572.60,67.95265
572.80,67.93681
573.00,67.95872
573.20,67.95079
573.40,67.96483
573.60,67.95437
573.80,67.97188
574.00,67.95236
574.20,67.95450
574.40,67.95082
574.60,67.98337
574.80,67.98695
575.00,67.99382
575.20,68.00588
575.40,68.00144
575.60,67.98599
575.80,67.98294
576.00,67.99545
576.20,67.99088
576.40,67.98639
576.60,67.98201
576.80,67.99984
577.00,67.98596
577.20,67.97872
577.40,67.98450
577.60,67.97900
577.80,67.98854
578.00,68.02662
578.20,68.03816
578.40,68.04581
578.60,68.07491
578.80,68.06611
579.00,68.05226
579.20,68.03763
579.40,68.03439
579.60,68.01432
579.80,68.01960
580.00,68.01024
580.20,68.02614
580.40,68.03154
580.60,68.03709
580.80,68.02965
581.00,68.03859
581.20,68.02316
581.40,68.02264
581.60,68.03290
581.80,68.03254
582.00,68.03882
582.20,68.07390
582.40,68.08395
582.60,68.08964
582.80,68.09074
583.00,68.09231
583.20,68.07203
583.40,68.08132
583.60,68.08670
583.80,68.10011
584.00,68.09833
584.20,68.10474
584.40,68.10929
584.60,68.12916
584.80,68.12738
585.00,68.12913
585.20,68.15946
585.40,68.16707
585.60,68.13633
585.80,68.14662
586.00,68.14148
586.20,68.13141
586.40,68.14066
586.60,68.15229
586.80,68.14514
587.00,68.17210
587.20,68.16081
587.40,68.16747
587.60,68.15708
587.80,68.17859
588.00,68.17034
588.20,68.18631
588.40,68.16823
588.60,68.18905
588.80,68.17196
589.00,68.17731
589.20,68.18380
589.40,68.18196
589.60,68.18303
589.80,68.18025
590.00,68.15754
590.20,68.12958
590.40,68.13419
590.60,68.12264
590.80,68.11940
591.00,68.16160
591.20,68.15932
591.40,68.17946
591.60,68.20377
591.80,68.23066
592.00,68.21069
592.20,68.24215
592.40,68.21678
592.60,68.19592
592.80,68.20573
593.00,68.21253
593.20,68.19574
593.40,68.20281
593.60,68.20482
593.80,68.21535
594.00,68.20799
594.20,68.22310
594.40,68.25688
594.60,68.28509
594.80,68.26251
595.00,68.27733
595.20,68.26648
595.40,68.26445
595.60,68.25315
595.80,68.26003
596.00,68.24964
596.20,68.25569
596.40,68.24777
596.60,68.26997
596.80,68.27053
597.00,68.28948
597.20,68.30240
597.40,68.29715
597.60,68.29324
597.80,68.27995
598.00,68.28548
598.20,68.28761
598.40,68.30065
598.60,68.31367
598.80,68.34614
599.00,68.33116
599.20,68.34014
599.40,68.34121
599.60,68.32960
599.80,68.30713
600.00,68.31608
600.20,68.32820
600.40,68.32646
600.60,68.30525
600.80,68.32393
601.00,68.30874
601.20,68.29454
601.40,68.29873
601.60,68.31450
601.80,68.29038
602.00,68.31821
602.20,68.32485
602.40,68.32608
602.60,68.33984
602.80,68.35613
603.00,68.35175
603.20,68.35453
603.40,68.35641
603.60,68.36092
603.80,68.36559
604.00,68.36814
604.20,68.36373
604.40,68.32747
604.60,68.32107
604.80,68.32535
605.00,68.31661
605.20,68.32973
605.40,68.35372
605.60,68.34217
605.80,68.35325
606.00,68.37657
606.20,68.38643
606.40,68.38209
606.60,68.39431
606.80,68.36809
607.00,68.34071
607.20,68.32268
607.40,68.33278
607.60,68.32302
607.80,68.34525
608.00,68.35026
608.20,68.34828
608.40,68.35872
608.60,68.39275
608.80,68.40572
609.00,68.42833
609.20,68.44695
609.40,68.45469
609.60,68.43418
609.80,68.42995
610.00,68.42499
610.20,68.42300
610.40,68.38561
610.60,68.37221
610.80,68.38190
611.00,68.38850
611.20,68.39465
611.40,68.43281
611.60,68.45551
611.80,68.41975
612.00,68.41242
612.20,68.40047
612.40,68.40983
612.60,68.37885
612.80,68.39976
613.00,68.41687
613.20,68.41044
613.40,68.41465
613.60,68.44792
613.80,68.44063
614.00,68.43441
614.20,68.44823
614.40,68.43895
614.60,68.43972
614.80,68.46058
615.00,68.45376
615.20,68.47241
615.40,68.47172
615.60,68.46775
615.80,68.47441
616.00,68.47461
616.20,68.46704
616.40,68.47665
616.60,68.48177
616.80,68.47295
617.00,68.47670
617.20,68.46878
617.40,68.48134
617.60,68.50857
617.80,68.50888
618.00,68.52861
618.20,68.54430
618.40,68.51207
618.60,68.49365
618.80,68.49890
619.00,68.47973
619.20,68.45531
619.40,68.48150
619.60,68.46778
619.80,68.47099
620.00,68.47632
620.20,68.47859
620.40,68.48712
620.60,68.51274
620.80,68.50853
621.00,68.50703
621.20,68.50490
621.40,68.47761
621.60,68.46502
621.80,68.46863
622.00,68.46646
622.20,68.48341
622.40,68.49977
622.60,68.49237
622.80,68.50949
623.00,68.50744
623.20,68.51566
623.40,68.51190
623.60,68.53168
623.80,68.53498
624.00,68.55531
624.20,68.57162
624.40,68.58692
624.60,68.59847
624.80,68.58070
625.00,68.57482
625.20,68.56936
625.40,68.56166
625.60,68.56093
625.80,68.60831
626.00,68.63495
626.20,68.64411
626.40,68.67433
626.60,68.67672
626.80,68.65897
627.00,68.63602
627.20,68.62314
627.40,68.59486
627.60,68.57086
627.80,68.55588
628.00,68.57815
628.20,68.58643
628.40,68.61946
628.60,68.65661
628.80,68.65569
629.00,68.64019
629.20,68.64952
629.40,68.63606
629.60,68.62063
629.80,68.65008
630.00,68.67287
630.20,68.66019
630.40,68.65411
630.60,68.65349
630.80,68.63678
631.00,68.62404
631.20,68.61727
631.40,68.63624
631.60,68.67272
631.80,68.68510
632.00,68.69417
632.20,68.71605
632.40,68.70109
632.60,68.67719
632.80,68.66870
633.00,68.68095
633.20,68.69938
633.40,68.71090
633.60,68.72159
633.80,68.72556
634.00,68.70857
634.20,68.68085
634.40,68.67705
634.60,68.68141
634.80,68.70201
635.00,68.72179
635.20,68.73351
635.40,68.75188
635.60,68.74009
635.80,68.74722
636.00,68.75352
636.20,68.75662
636.40,68.75860
636.60,68.75874
636.80,68.73112
637.00,68.74425
637.20,68.74834
637.40,68.77382
637.60,68.78005
637.80,68.80370
638.00,68.80677
638.20,68.82176
638.40,68.80850
638.60,68.81799
638.80,68.80191
639.00,68.79238
639.20,68.78631
639.40,68.79603
639.60,68.81611
639.80,68.83781
640.00,68.84193
640.20,68.85964
640.40,68.83484
640.60,68.81508
640.80,68.80167
641.00,68.79689
641.20,68.78856
641.40,68.79236
641.60,68.82387
641.80,68.83371
642.00,68.86449
642.20,68.87457
642.40,68.86585
642.60,68.86497
642.80,68.87224
643.00,68.87149
643.20,68.87922
643.40,68.92030
643.60,68.92419
643.80,68.93398
644.00,68.91921
644.20,68.94564
644.40,68.95640
644.60,68.96047
644.80,68.95142
645.00,68.98577
645.20,68.96135
645.40,68.94161
645.60,68.93845
645.80,68.96299
646.00,68.93730
646.20,68.94415
646.40,68.97779
646.60,68.96986
646.80,68.97874
647.00,68.98640
647.20,68.97934
647.40,68.99017
647.60,68.99277
647.80,68.99794
648.00,68.98605
648.20,68.99190
648.40,68.98572
648.60,69.00007
648.80,68.98381
649.00,69.01829
649.20,69.02844
649.40,69.02126
649.60,69.00605
649.80,69.00703
650.00,69.00141
650.20,69.00419
650.40,69.04798
650.60,69.06288
650.80,69.08449
651.00,69.09814
651.20,69.11693
651.40,69.07820
651.60,69.11485
651.80,69.10822
652.00,69.11116
652.20,69.11174
652.40,69.13300
652.60,69.14344
652.80,69.17367
653.00,69.17246
653.20,69.16692
653.40,69.14299
653.60,69.13940
653.80,69.13097
654.00,69.12932
654.20,69.13721
654.40,69.16670
654.60,69.16452
654.80,69.16658
655.00,69.14000
655.20,69.15150
655.40,69.15013
655.60,69.12392
655.80,69.12028
656.00,69.16168
656.20,69.14942
656.40,69.15397
656.60,69.18861
656.80,69.19026
657.00,69.21263
657.20,69.24286
657.40,69.21833
657.60,69.20245
657.80,69.21365
658.00,69.20228
658.20,69.19280
658.40,69.22160
658.60,69.25508
658.80,69.30160
659.00,69.31393
659.20,69.30560
659.40,69.33420
659.60,69.29364
659.80,69.25392
660.00,69.23864
660.20,69.27139
660.40,69.24863
660.60,69.27127
660.80,69.27008
661.00,69.26708
661.20,69.25976
661.40,69.26365
661.60,69.30837
661.80,69.35084
662.00,69.37239
662.20,69.37058
662.40,69.38033
662.60,69.37294
662.80,69.36905
663.00,69.38972
663.20,69.38124
663.40,69.38738
663.60,69.38576
663.80,69.40539
664.00,69.40020
664.20,69.42520
664.40,69.43250
664.60,69.45159
664.80,69.41764
665.00,69.42545
665.20,69.43436
665.40,69.42979
665.60,69.43325
665.80,69.46190
666.00,69.47299
666.20,69.49294
666.40,69.51790
666.60,69.52823
666.80,69.49978
667.00,69.49120
667.20,69.49667
667.40,69.50002
667.60,69.46641
667.80,69.49776
668.00,69.51385
668.20,69.51798
668.40,69.53575
668.60,69.59534
668.80,69.63789
669.00,69.64896
669.20,69.65306
669.40,69.65705
669.60,69.64210
669.80,69.64942
670.00,69.65458
670.20,69.68111
670.40,69.69588
670.60,69.68318
670.80,69.65901
671.00,69.68439
671.20,69.63966
671.40,69.63322
671.60,69.67728
671.80,69.66994
672.00,69.65346
672.20,69.72840
672.40,69.72846
672.60,69.67726
672.80,69.70224
673.00,69.70108
673.20,69.67612
673.40,69.67479
673.60,69.70720
673.80,69.72096
674.00,69.75417
674.20,69.78558
674.40,69.81270
674.60,69.81544
674.80,69.82956
675.00,69.82543
675.20,69.79936
675.40,69.81078
675.60,69.81868
675.80,69.87686
676.00,69.89534
676.20,69.92238
676.40,69.93449
676.60,69.95128
676.80,69.91361
677.00,69.92705
677.20,69.97101
677.40,69.96485
677.60,70.00273
677.80,69.98672
678.00,69.99766
678.20,69.96411
678.40,69.95286
678.60,69.95026
678.80,69.99184
679.00,70.00239
679.20,70.03340
679.40,70.07552
679.60,70.07689
679.80,70.09321
680.00,70.12026
680.20,70.11825
680.40,70.14351
680.60,70.15670
680.80,70.13459
681.00,70.12042
681.20,70.10921
681.40,70.13322
681.60,70.14939
681.80,70.17544
682.00,70.20307
682.20,70.25239
682.40,70.24931
682.60,70.27179
682.80,70.25334
683.00,70.24080
683.20,70.21675
683.40,70.23183
683.60,70.24142
683.80,70.27822
684.00,70.30299
684.20,70.32661
684.40,70.33121
684.60,70.36659
684.80,70.39917
685.00,70.40883
685.20,70.39488
685.40,70.40212
685.60,70.39700
685.80,70.40950
686.00,70.42574
686.20,70.52392
686.40,70.55345
686.60,70.55359
686.80,70.57768
687.00,70.60515
687.20,70.57395
687.40,70.57614
687.60,70.57869
687.80,70.59807
688.00,70.60188
688.20,70.61678
688.40,70.63713
688.60,70.67852
688.80,70.64970
689.00,70.70890
689.20,70.73900
689.40,70.79823
689.60,70.83240
689.80,70.89346
690.00,70.87735
690.20,70.86699
690.40,70.85966
690.60,70.85975
690.80,70.90506
691.00,70.90617
691.20,70.96487
691.40,70.98261
691.60,70.97560
691.80,70.96381
692.00,70.97361
692.20,70.93939
692.40,70.91167
692.60,70.94493
692.80,70.92021
693.00,70.97669
693.20,70.99708
693.40,71.00075
693.60,71.06667
693.80,71.14941
694.00,71.13487
694.20,71.18762
694.40,71.22975
694.60,71.20168
694.80,71.15384
695.00,71.17821
695.20,71.14467
695.40,71.17613
695.60,71.17305
695.80,71.18302
696.00,71.19582
696.20,71.25607
696.40,71.26039
696.60,71.27159
696.80,71.28975
697.00,71.29790
697.20,71.31944
697.40,71.32898
697.60,71.36972
697.80,71.39786
698.00,71.43037
698.20,71.42470
698.40,71.42006
698.60,71.44405
698.80,71.47756
699.00,71.47270
699.20,71.53686
699.40,71.61270
699.60,71.59439
699.80,71.63396
700.00,71.65288
700.20,71.65464
700.40,71.59651
700.60,71.63903
700.80,71.62004
701.00,71.66148
701.20,71.64381
701.40,71.66462
701.60,71.64431
701.80,71.63950
702.00,71.62853
702.20,71.63464
702.40,71.72560
702.60,71.76720
702.80,71.82407
703.00,71.86099
703.20,71.87440
703.40,71.85356
703.60,71.89479
703.80,71.84585
704.00,71.85602
704.20,71.87456
704.40,71.87727
704.60,71.88380
704.80,71.96577
705.00,71.93927
705.20,71.94002
705.40,71.98050
705.60,71.95686
705.80,71.95135
706.00,72.04092
706.20,72.10920
706.40,72.10225
706.60,72.13086
706.80,72.18458
707.00,72.22124
707.20,72.19969
707.40,72.21860
707.60,72.28767
707.80,72.26868
708.00,72.25821
708.20,72.29207
708.40,72.30672
708.60,72.25702
708.80,72.25800
709.00,72.21912
709.20,72.21699
709.40,72.30458
709.60,72.34617
709.80,72.34991
710.00,72.40770
710.20,72.41979
710.40,72.37602
710.60,72.36227
710.80,72.41631
711.00,72.41876
711.20,72.44554
711.40,72.44042
711.60,72.50813
711.80,72.51122
712.00,72.51657
712.20,72.53943
712.40,72.58503
712.60,72.54753
712.80,72.55079
713.00,72.57484
713.20,72.58824
713.40,72.59609
713.60,72.61406
713.80,72.61612
714.00,72.63637
714.20,72.64125
714.40,72.66483
714.60,72.72604
714.80,72.74002
715.00,72.73027
715.20,72.73600
715.40,72.70390
715.60,72.69837
715.80,72.72366
716.00,72.71666
716.20,72.72971
716.40,72.73729
716.60,72.73803
716.80,72.74589
717.00,72.78104
717.20,72.79044
717.40,72.83347
717.60,72.88676
717.80,72.90224
718.00,72.90202
718.20,72.93587
718.40,72.96018
718.60,72.91132
718.80,72.96671
719.00,73.02821
719.20,72.98921
719.40,72.95846
719.60,72.91906
719.80,72.87112
720.00,72.82104
720.20,72.88802
720.40,72.90864
720.60,72.97671
720.80,72.98728
721.00,73.05998
721.20,73.04524
721.40,73.11628
721.60,73.14880
721.80,73.19462
722.00,73.17863
722.20,73.15224
722.40,73.10365
722.60,73.08874
722.80,73.10996
723.00,73.06992
723.20,73.12229
723.40,73.14885
723.60,73.19436
723.80,73.14397
724.00,73.22579
724.20,73.24724
724.40,73.26263
724.60,73.23557
724.80,73.27490
725.00,73.29576
725.20,73.31920
725.40,73.29037
725.60,73.30342
725.80,73.29192
726.00,73.23793
726.20,73.22049
726.40,73.24113
726.60,73.23985
726.80,73.22479
727.00,73.25345
727.20,73.20848
727.40,73.25696
727.60,73.28647
727.80,73.28746
728.00,73.26635
728.20,73.30660
728.40,73.29102
728.60,73.30730
728.80,73.34568
729.00,73.43516
729.20,73.45510
729.40,73.43875
729.60,73.43277
729.80,73.44256
730.00,73.40723
730.20,73.40485
730.40,73.44105
730.60,73.52071
730.80,73.50747
731.00,73.49888
731.20,73.49701
731.40,73.47700
731.60,73.44327
731.80,73.49983
732.00,73.51380
732.20,73.54320
732.40,73.55955
732.60,73.58201
732.80,73.59344
733.00,73.63021
733.20,73.66107
733.40,73.65421
733.60,73.62736
733.80,73.60041
734.00,73.57517
734.20,73.58413
734.40,73.60710
734.60,73.60361
734.80,73.60467
735.00,73.57380
735.20,73.56009
735.40,73.57686
735.60,73.56756
735.80,73.57775
736.00,73.63279
736.20,73.63397
736.40,73.66388
736.60,73.68328
736.80,73.71224
737.00,73.72499
737.20,73.75660
737.40,73.75126
737.60,73.75883
737.80,73.71593
738.00,73.71562
738.20,73.73154
738.40,73.72535
738.60,73.76597
738.80,73.85792
739.00,73.91132
739.20,73.87539
739.40,73.93282
739.60,73.87742
739.80,73.80520
740.00,73.73332
740.20,73.73548
740.40,73.72259
740.60,73.76238
740.80,73.78971
741.00,73.84831
741.20,73.89471
741.40,73.80992
741.60,73.80249
741.80,73.81412
742.00,73.77779
742.20,73.74001
742.40,73.74655
742.60,73.74175
742.80,73.80782
743.00,73.83898
743.20,73.85566
743.40,73.88670
743.60,73.88308
743.80,73.84723
744.00,73.80089
744.20,73.77321
744.40,73.84846
744.60,73.85455
744.80,73.81842
745.00,73.85584
745.20,73.85360
745.40,73.82165
745.60,73.83886
745.80,73.84825
746.00,73.82755
746.20,73.81030
746.40,73.79566
746.60,73.81669
746.80,73.85151
747.00,73.86479
747.20,73.90134
747.40,73.84623
747.60,73.80154
747.80,73.79155
748.00,73.81273
748.20,73.85561
748.40,73.93930
748.60,73.99123
748.80,73.99058
749.00,73.94292
749.20,73.87636
749.40,73.84807
749.60,73.85954
749.80,73.88513
750.00,73.96418
750.20,74.03530
750.40,74.05210
750.60,74.04903
750.80,74.02760
751.00,73.94047
751.20,73.89536
751.40,73.90267
751.60,73.88539
751.80,73.91074
752.00,74.00698
752.20,74.01723
752.40,74.00442
752.60,73.97513
752.80,73.94639
753.00,73.87949
753.20,73.93905
753.40,73.97292
753.60,74.01995
753.80,74.03439
754.00,74.00551
754.20,74.04832
754.40,74.01168
754.60,74.03639
754.80,73.98560
755.00,74.00946
755.20,73.96437
755.40,74.01139
755.60,74.01215
755.80,74.08647
756.00,74.13611
756.20,74.10856
756.40,74.05137
756.60,73.99737
756.80,74.02993
757.00,74.02900
757.20,74.07414
757.40,74.14131
757.60,74.17809
757.80,74.16015
758.00,74.22813
758.20,74.20073
758.40,74.20775
758.60,74.22328
758.80,74.17809
759.00,74.13483
759.20,74.15342
759.40,74.23943
759.60,74.20275
759.80,74.24341
760.00,74.17507
760.20,74.12808
760.40,73.97679
760.60,73.97074
760.80,73.92780
761.00,73.95156
761.20,73.92583
761.40,73.92730
761.60,73.92583
761.80,73.97172
762.00,74.04008
762.20,74.05307
762.40,74.02534
762.60,74.07675
762.80,74.06464
763.00,73.97478
763.20,73.98330
763.40,73.97579
763.60,74.01807
763.80,74.00455
764.00,74.06986
764.20,74.06810
764.40,74.16956
764.60,74.06256
764.80,74.08370
765.00,74.01906
765.20,74.07391
765.40,74.06226
765.60,74.07065
765.80,74.00917
766.00,74.04423
766.20,74.04477
766.40,74.02644
766.60,74.08277
766.80,74.11867
767.00,74.19194
767.20,74.17228
767.40,74.22369
767.60,74.23410
767.80,74.22965
768.00,74.20708
768.20,74.17023
768.40,74.11290
768.60,74.05434
768.80,74.12499
769.00,74.13576
769.20,74.20543
769.40,74.19374
769.60,74.29218
769.80,74.23744
770.00,74.12908
770.20,74.07243
770.40,74.06047
770.60,74.00150
770.80,73.96584
771.00,74.05270
771.20,74.10812
771.40,74.11829
771.60,74.12291
771.80,74.11463
772.00,74.11246
772.20,74.09186
772.40,74.08943
772.60,74.15065
772.80,74.17570
773.00,74.15916
773.20,74.16027
773.40,74.25507
773.60,74.14032
773.80,74.16673
774.00,74.11918
774.20,74.12802
774.40,74.11213
774.60,74.21477
774.80,74.19951
775.00,74.19817
775.20,74.22286
775.40,74.23801
775.60,74.17912
775.80,74.18339
776.00,74.21357
776.20,74.14534
776.40,74.09890
776.60,74.10544
776.80,74.12813
777.00,74.12593
777.20,74.21079
777.40,74.24968
777.60,74.28355
777.80,74.23057
778.00,74.29558
778.20,74.25200
778.40,74.17529
778.60,74.12136
778.80,74.19952
779.00,74.17212
779.20,74.16838
779.40,74.25199
779.60,74.34406
779.80,74.28429
780.00,74.28645
780.20,74.27869
780.40,74.23930
780.60,74.17204
780.80,74.28085
781.00,74.28973
781.20,74.33513
781.40,74.27186
781.60,74.28420
781.80,74.25914
782.00,74.28231
782.20,74.25542
782.40,74.35610
782.60,74.36358
782.80,74.37524
783.00,74.34227
783.20,74.29518
783.40,74.27926
783.60,74.32722
783.80,74.33177
784.00,74.41689
784.20,74.49013
784.40,74.43974
784.60,74.34890
784.80,74.29862
785.00,74.24222
785.20,74.19811
785.40,74.16382
785.60,74.15456
785.80,74.13765
786.00,74.01163
786.20,74.08643
786.40,74.14774
786.60,74.15233
786.80,74.22695
787.00,74.36122
787.20,74.21104
787.40,74.23341
787.60,74.29715
787.80,74.23774
788.00,74.14207
788.20,74.27413
788.40,74.32046
788.60,74.39024
788.80,74.45341
789.00,74.56242
789.20,74.58047
789.40,74.44975
789.60,74.42617
789.80,74.38763
790.00,74.38935
790.20,74.39196
790.40,74.51548
790.60,74.49658
790.80,74.52523
791.00,74.51408
791.20,74.46832
791.40,74.44347
791.60,74.47227
791.80,74.37420
792.00,74.38831
792.20,74.38071
792.40,74.37333
792.60,74.33931
792.80,74.37460
793.00,74.34177
793.20,74.38337
793.40,74.34513
793.60,74.30497
793.80,74.37912
794.00,74.38589
794.20,74.36996
794.40,74.39238
794.60,74.41411
794.80,74.29246
795.00,74.39275
795.20,74.39718
795.40,74.47664
795.60,74.46480
795.80,74.58605
796.00,74.57572
796.20,74.66335
796.40,74.59930
796.60,74.53535
796.80,74.50586
797.00,74.47826
797.20,74.49273
797.40,74.51494
797.60,74.53945
797.80,74.59011
798.00,74.46953
798.20,74.38082
798.40,74.33146
798.60,74.35079
798.80,74.23788
799.00,74.31929
799.20,74.30883
799.40,74.37885
799.60,74.45760
799.80,74.55414
800.00,74.57349
