"Resin DP Sapphire Slow - RawData"
"Wavelength nm.","T%"
200.00,77.79796
200.20,77.58262
200.40,77.68875
200.60,78.33498
200.80,78.94660
201.00,79.52162
201.20,79.93428
201.40,80.20184
201.60,79.98011
201.80,79.46808
202.00,79.20104
202.20,78.98721
202.40,78.31200
202.60,78.05827
202.80,78.12273
203.00,77.93631
203.20,78.20421
203.40,78.74963
203.60,78.77452
203.80,79.39473
204.00,79.48052
204.20,79.46050
204.40,79.91752
204.60,80.28837
204.80,79.85821
205.00,80.34782
205.20,80.67410
205.40,80.74910
205.60,80.40591
205.80,80.48695
206.00,80.69600
206.20,80.33196
206.40,80.13023
206.60,80.35151
206.80,80.68242
207.00,80.43330
207.20,80.57306
207.40,80.64122
207.60,80.53001
207.80,80.50743
208.00,80.76922
208.20,80.95565
208.40,80.82100
208.60,80.78379
208.80,80.77185
209.00,80.29988
209.20,80.19703
209.40,80.29243
209.60,80.32690
209.80,80.55943
210.00,80.70841
210.20,80.68547
210.40,80.44366
210.60,80.65218
210.80,80.60140
211.00,80.99510
211.20,81.12839
211.40,81.28257
211.60,81.41161
211.80,81.46956
212.00,81.47526
212.20,81.45024
212.40,81.44833
212.60,81.56051
212.80,81.68858
213.00,81.78070
213.20,81.84703
213.40,82.12402
213.60,81.61610
213.80,81.23945
214.00,81.14485
214.20,81.08459
214.40,80.88760
214.60,81.35676
214.80,81.60216
215.00,81.39043
215.20,81.42651
215.40,81.31055
215.60,81.18160
215.80,81.01611
216.00,81.24112
216.20,81.06964
216.40,81.25682
216.60,81.16905
216.80,81.25867
217.00,81.13880
217.20,81.46926
217.40,81.17398
217.60,81.13047
217.80,81.20589
218.00,81.42668
218.20,81.28694
218.40,81.67560
218.60,81.93387
218.80,81.55384
219.00,81.53688
219.20,81.74860
219.40,81.71160
219.60,81.57904
219.80,81.97949
220.00,81.95501
220.20,81.98397
220.40,81.83989
220.60,81.85619
220.80,81.76033
221.00,81.61517
221.20,81.48988
221.40,81.67076
221.60,81.74229
221.80,81.93028
222.00,81.93722
222.20,82.20264
222.40,82.07909
222.60,82.19936
222.80,82.21853
223.00,82.34959
223.20,81.99891
223.40,81.97154
223.60,82.02024
223.80,81.90399
224.00,82.04953
224.20,82.14695
224.40,82.31371
224.60,82.26100
224.80,82.41825
225.00,82.31520
225.20,82.15224
225.40,82.10447
225.60,82.16105
225.80,82.25059
226.00,82.28245
226.20,82.55754
226.40,82.71378
226.60,82.49968
226.80,82.43093
227.00,82.51765
227.20,82.52615
227.40,82.49950
227.60,82.72151
227.80,82.59365
228.00,82.62541
228.20,82.53970
228.40,82.36610
228.60,82.18199
228.80,82.45634
229.00,82.47169
229.20,82.46965
229.40,82.53636
229.60,82.49502
229.80,82.45198
230.00,82.43263
230.20,82.45943
230.40,82.49999
230.60,82.72165
230.80,82.70984
231.00,82.63898
231.20,82.97945
231.40,83.03010
231.60,83.07762
231.80,82.98849
232.00,82.93369
232.20,82.71686
232.40,82.73959
232.60,82.81249
232.80,82.92286
233.00,83.07501
233.20,83.03245
233.40,83.06214
233.60,82.92897
233.80,82.88008
234.00,82.87349
234.20,83.08014
234.40,83.22207
234.60,83.29723
234.80,83.40879
235.00,83.33971
235.20,83.37279
235.40,83.20793
235.60,83.20863
235.80,83.15750
236.00,83.24159
236.20,83.21236
236.40,83.39223
236.60,83.41789
236.80,83.45727
237.00,83.27718
237.20,83.18533
237.40,83.14983
237.60,83.15151
237.80,83.12071
238.00,83.35024
238.20,83.32730
238.40,83.32224
238.60,83.32277
238.80,83.43844
239.00,83.34196
239.20,83.49629
239.40,83.46332
239.60,83.55028
239.80,83.50649
240.00,83.59348
240.20,83.48514
240.40,83.47945
240.60,83.35227
240.80,83.38451
241.00,83.44592
241.20,83.47282
241.40,83.47487
241.60,83.37789
241.80,83.36533
242.00,83.36424
242.20,83.45435
242.40,83.37874
242.60,83.54542
242.80,83.59914
243.00,83.60759
243.20,83.62744
243.40,83.74019
243.60,83.68230
243.80,83.63724
244.00,83.63498
244.20,83.54857
244.40,83.56115
244.60,83.64669
244.80,83.71112
245.00,83.73346
245.20,83.80821
245.40,83.85789
245.60,83.86548
245.80,83.78050
246.00,83.79613
246.20,83.74590
246.40,83.76219
246.60,83.78557
246.80,83.88432
247.00,83.80424
247.20,83.84845
247.40,83.79536
247.60,83.73421
247.80,83.66283
248.00,83.73324
248.20,83.62439
248.40,83.65675
248.60,83.78484
248.80,83.69845
249.00,83.69806
249.20,83.83942
249.40,83.84273
249.60,83.72121
249.80,83.81578
250.00,83.86250
250.20,83.72975
250.40,83.73852
250.60,83.79793
250.80,83.85854
251.00,83.73810
251.20,83.80342
251.40,83.79874
251.60,83.76848
251.80,83.65920
252.00,83.73781
252.20,83.76654
252.40,83.75671
252.60,83.82877
252.80,83.94533
253.00,83.89742
253.20,83.79536
253.40,83.84004
253.60,83.86827
253.80,83.88502
254.00,83.97902
254.20,84.06579
254.40,84.09746
254.60,84.04340
254.80,83.93980
255.00,83.89686
255.20,83.94520
255.40,83.91849
255.60,84.00147
255.80,84.08720
256.00,84.01304
256.20,83.99299
256.40,83.94725
256.60,83.91923
256.80,83.85677
257.00,83.90715
257.20,83.91238
257.40,83.92200
257.60,83.81203
257.80,83.84359
258.00,83.86293
258.20,83.94754
258.40,83.88861
258.60,83.99837
258.80,84.03198
259.00,84.04867
259.20,83.96041
259.40,84.00366
259.60,83.95058
259.80,83.97711
260.00,84.06553
260.20,84.07292
260.40,84.14190
260.60,84.10400
260.80,84.14331
261.00,84.15377
261.20,84.21794
261.40,84.27163
261.60,84.33931
261.80,84.28996
262.00,84.32410
262.20,84.25374
262.40,84.16506
262.60,84.19722
262.80,84.07108
263.00,83.95445
263.20,83.98827
263.40,83.97234
263.60,83.94247
263.80,84.12516
264.00,84.28779
264.20,84.18587
264.40,84.34528
264.60,84.39192
264.80,84.32111
265.00,84.20167
265.20,84.36546
265.40,84.27901
265.60,84.19054
265.80,84.21490
266.00,84.18300
266.20,84.07918
266.40,84.00241
266.60,84.02706
266.80,84.09574
267.00,84.10763
267.20,84.12992
267.40,84.20821
267.60,84.24256
267.80,84.23660
268.00,84.31233
268.20,84.34803
268.40,84.35543
268.60,84.34220
268.80,84.20756
269.00,84.10208
269.20,84.04077
269.40,84.04181
269.60,84.08549
269.80,84.18890
270.00,84.20789
270.20,84.21714
270.40,84.23800
270.60,84.23732
270.80,84.23213
271.00,84.26176
271.20,84.37868
271.40,84.37329
271.60,84.36527
271.80,84.29604
272.00,84.34313
272.20,84.29672
272.40,84.37786
272.60,84.42787
272.80,84.46344
273.00,84.41467
273.20,84.40199
273.40,84.26542
273.60,84.23631
273.80,84.22062
274.00,84.16037
274.20,84.20200
274.40,84.30917
274.60,84.30279
274.80,84.35650
275.00,84.34715
275.20,84.29987
275.40,84.20219
275.60,84.24170
275.80,84.26996
276.00,84.32762
276.20,84.39786
276.40,84.47116
276.60,84.44487
276.80,84.43538
277.00,84.46451
277.20,84.45511
277.40,84.39271
277.60,84.42506
277.80,84.40404
278.00,84.37276
278.20,84.29856
278.40,84.26360
278.60,84.26927
278.80,84.29088
279.00,84.38017
279.20,84.45650
279.40,84.49060
279.60,84.36891
279.80,84.27465
280.00,84.10698
280.20,84.03303
280.40,84.09358
280.60,84.23383
280.80,84.27885
281.00,84.41446
281.20,84.45568
281.40,84.41108
281.60,84.31836
281.80,84.29936
282.00,84.28630
282.20,84.18714
282.40,84.23094
282.60,84.15846
282.80,84.21507
283.00,84.13981
283.20,84.28452
283.40,84.25092
283.60,84.42149
283.80,84.52893
284.00,84.54528
284.20,84.41975
284.40,84.41972
284.60,84.35931
284.80,84.28392
285.00,84.32556
285.20,84.45674
285.40,84.42935
285.60,84.41025
285.80,84.36318
286.00,84.37535
286.20,84.34305
286.40,84.36247
286.60,84.40279
286.80,84.48390
287.00,84.59346
287.20,84.62732
287.40,84.63742
287.60,84.58585
287.80,84.53125
288.00,84.46459
288.20,84.43614
288.40,84.50569
288.60,84.50587
288.80,84.47884
289.00,84.42456
289.20,84.42171
289.40,84.40059
289.60,84.43848
289.80,84.44057
290.00,84.46596
290.20,84.44885
290.40,84.49259
290.60,84.50770
290.80,84.62166
291.00,84.63323
291.20,84.65246
291.40,84.61931
291.60,84.63832
291.80,84.57289
292.00,84.57939
292.20,84.59361
292.40,84.61540
292.60,84.58557
292.80,84.70455
293.00,84.71230
293.20,84.57737
293.40,84.55474
293.60,84.59066
293.80,84.41710
294.00,84.50143
294.20,84.59917
294.40,84.57938
294.60,84.58174
294.80,84.64054
295.00,84.63017
295.20,84.68596
295.40,84.69698
295.60,84.74209
295.80,84.78347
296.00,84.79508
296.20,84.80802
296.40,84.81506
296.60,84.72408
296.80,84.69118
297.00,84.72425
297.20,84.72304
297.40,84.72849
297.60,84.81714
297.80,84.82066
298.00,84.74131
298.20,84.76628
298.40,84.83989
298.60,84.80928
298.80,84.86831
299.00,84.86508
299.20,84.86978
299.40,84.76375
299.60,84.78911
299.80,84.76369
300.00,84.75748
300.20,84.73167
300.40,84.67322
300.60,84.64015
300.80,84.65347
301.00,84.69380
301.20,84.65301
301.40,84.79604
301.60,84.80284
301.80,84.74815
302.00,84.71320
302.20,84.73418
302.40,84.78214
302.60,84.81740
302.80,84.82494
303.00,84.95346
303.20,85.03582
303.40,84.98806
303.60,84.93758
303.80,84.96470
304.00,84.80787
304.20,84.72542
304.40,84.72375
304.60,84.80064
304.80,84.82791
305.00,84.75206
305.20,84.77690
305.40,84.73356
305.60,84.74058
305.80,84.69390
306.00,84.71047
306.20,84.65905
306.40,84.55424
306.60,84.54580
306.80,84.51610
307.00,84.59731
307.20,84.60954
307.40,84.67174
307.60,84.59647
307.80,84.61822
308.00,84.67637
308.20,84.66480
308.40,84.66418
308.60,84.70502
308.80,84.65579
309.00,84.71875
309.20,84.68083
309.40,84.77527
309.60,84.89048
309.80,84.98653
310.00,84.84882
310.20,84.96442
310.40,84.87465
310.60,84.67552
310.80,84.69791
311.00,84.72722
311.20,84.59266
311.40,84.60339
311.60,84.66053
311.80,84.61693
312.00,84.61574
312.20,84.74314
312.40,84.74942
312.60,84.78012
312.80,84.73089
313.00,84.62758
313.20,84.59376
313.40,84.66609
313.60,84.60718
313.80,84.70150
314.00,84.73244
314.20,84.81194
314.40,84.79446
314.60,84.81704
314.80,84.78363
315.00,84.87240
315.20,84.68565
315.40,84.66076
315.60,84.66884
315.80,84.68264
316.00,84.65486
316.20,84.83994
316.40,84.92897
316.60,84.92748
316.80,84.97381
317.00,84.97818
317.20,84.94987
317.40,84.79429
317.60,84.89435
317.80,84.82888
318.00,84.84547
318.20,84.67025
318.40,84.71076
318.60,84.57292
318.80,84.56026
319.00,84.52928
319.20,84.61600
319.40,84.68944
319.60,84.71153
319.80,84.73989
320.00,84.60335
320.20,84.67301
320.40,84.64045
320.60,84.64370
320.80,84.68216
321.00,84.85718
321.20,84.85558
321.40,84.87160
321.60,84.90064
321.80,84.85451
322.00,84.72833
322.20,84.67124
322.40,84.62349
322.60,84.64201
322.80,84.62614
323.00,84.85982
323.20,84.91408
323.40,84.97988
323.60,84.94582
323.80,85.10883
324.00,84.94454
324.20,84.84717
324.40,84.76581
324.60,84.82184
324.80,84.71558
325.00,84.73710
325.20,84.90767
325.40,84.96647
325.60,85.06072
325.80,85.07085
326.00,85.13928
326.20,85.06132
326.40,85.02745
326.60,84.94363
326.80,84.86342
327.00,84.70640
327.20,84.74443
327.40,84.85463
327.60,84.77263
327.80,84.85917
328.00,84.97720
328.20,84.95573
328.40,84.95463
328.60,85.04352
328.80,85.00878
329.00,85.01070
329.20,84.98648
329.40,85.00844
329.60,85.03773
329.80,85.06725
330.00,85.06618
330.20,85.10756
330.40,84.96535
330.60,84.94661
330.80,84.98642
331.00,85.02761
331.20,85.05314
331.40,85.18181
331.60,85.13355
331.80,85.11546
332.00,85.00783
332.20,84.88075
332.40,84.77718
332.60,84.75255
332.80,84.74089
333.00,84.76328
333.20,84.79685
333.40,84.83882
333.60,84.92590
333.80,84.92680
334.00,85.06555
334.20,85.09588
334.40,85.13393
334.60,85.10234
334.80,85.00211
335.00,84.93369
335.20,84.88933
335.40,84.83625
335.60,84.84696
335.80,84.97505
336.00,84.95833
336.20,85.02300
336.40,84.98219
336.60,84.92897
336.80,84.80410
337.00,84.77551
337.20,84.74830
337.40,84.74799
337.60,84.80037
337.80,84.87970
338.00,84.94389
338.20,85.00622
338.40,85.07726
338.60,85.07454
338.80,84.93383
339.00,84.90576
339.20,85.03594
339.40,85.02122
339.60,84.87486
339.80,85.04292
340.00,85.08541
340.20,84.98195
340.40,85.06181
340.60,85.24479
340.80,85.11377
341.00,85.11322
341.20,85.08255
341.40,84.95436
341.60,84.89287
341.80,85.01369
342.00,85.10954
342.20,85.07957
342.40,85.17026
342.60,85.17881
342.80,85.18193
343.00,85.10940
343.20,85.17609
343.40,85.14562
343.60,85.21745
343.80,85.16520
344.00,85.05061
344.20,85.04887
344.40,85.01502
344.60,84.97897
344.80,85.07959
345.00,85.05651
345.20,85.02235
345.40,85.08219
345.60,85.09464
345.80,85.04688
346.00,85.12871
346.20,85.11419
346.40,85.06047
346.60,85.00783
346.80,85.02577
347.00,85.03540
347.20,85.05658
347.40,85.16310
347.60,85.17289
347.80,85.06614
348.00,85.07276
348.20,85.12049
348.40,85.10987
348.60,85.11473
348.80,85.21486
349.00,85.14096
349.20,85.08257
349.40,85.06263
349.60,85.10565
349.80,85.09281
350.00,85.13657
350.20,85.13641
350.40,85.08254
350.60,85.04737
350.80,85.06808
351.00,85.07564
351.20,85.04462
351.40,85.03282
351.60,85.03479
351.80,85.02020
352.00,85.07740
352.20,85.05530
352.40,85.07041
352.60,85.06339
352.80,85.04102
353.00,85.09137
353.20,85.11013
353.40,85.08903
353.60,85.13091
353.80,85.12477
354.00,85.11204
354.20,85.14785
354.40,85.24013
354.60,85.19630
354.80,85.28178
355.00,85.21763
355.20,85.20079
355.40,85.19452
355.60,85.24747
355.80,85.17178
356.00,85.18574
356.20,85.20421
356.40,85.12461
356.60,85.08614
356.80,85.17367
357.00,85.09372
357.20,85.10224
357.40,85.11009
357.60,85.15339
357.80,85.03659
358.00,85.12201
358.20,85.07279
358.40,85.06685
358.60,85.02924
358.80,85.06658
359.00,85.02669
359.20,85.04872
359.40,85.11860
359.60,85.11025
359.80,85.04627
360.00,85.03973
360.20,85.03720
360.40,84.98749
360.60,85.02589
360.80,85.07788
361.00,85.04052
361.20,85.04366
361.40,85.03607
361.60,84.99211
361.80,85.02675
362.00,85.10799
362.20,85.14431
362.40,85.13442
362.60,85.17867
362.80,85.21135
363.00,85.16091
363.20,85.12477
363.40,85.13073
363.60,85.05320
363.80,85.05232
364.00,85.07611
364.20,85.07740
364.40,85.07137
364.60,85.11476
364.80,85.09272
365.00,85.10589
365.20,85.10203
365.40,85.13085
365.60,85.09965
365.80,85.10352
366.00,85.08280
366.20,85.17955
366.40,85.13704
366.60,85.11909
366.80,85.06671
367.00,85.12788
367.20,85.05171
367.40,85.06867
367.60,85.12535
367.80,85.17936
368.00,85.10472
368.20,85.18873
368.40,85.31566
368.60,85.26108
368.80,85.25573
369.00,85.33121
369.20,85.26728
369.40,85.19874
369.60,85.24705
369.80,85.20963
370.00,85.19187
370.20,85.13066
370.40,85.17753
370.60,85.17005
370.80,85.21290
371.00,85.17522
371.20,85.23622
371.40,85.24200
371.60,85.29775
371.80,85.23605
372.00,85.27583
372.20,85.21956
372.40,85.11529
372.60,85.06671
372.80,85.06754
373.00,85.07481
373.20,85.13615
373.40,85.20164
373.60,85.27069
373.80,85.27593
374.00,85.25917
374.20,85.28478
374.40,85.19903
374.60,85.13811
374.80,85.17413
375.00,85.27067
375.20,85.28454
375.40,85.34669
375.60,85.37247
375.80,85.41259
376.00,85.29529
376.20,85.22533
376.40,85.24614
376.60,85.21315
376.80,85.17229
377.00,85.16524
377.20,85.21490
377.40,85.18791
377.60,85.19644
377.80,85.18846
378.00,85.22874
378.20,85.25048
378.40,85.25981
378.60,85.24559
378.80,85.29922
379.00,85.29534
379.20,85.27173
379.40,85.21973
379.60,85.26649
379.80,85.24312
380.00,85.20348
380.20,85.14317
380.40,85.23031
380.60,85.20189
380.80,85.18693
381.00,85.21867
381.20,85.26870
381.40,85.22041
381.60,85.21781
381.80,85.23609
382.00,85.23052
382.20,85.19791
382.40,85.15376
382.60,85.14905
382.80,85.11269
383.00,85.12833
383.20,85.14482
383.40,85.15928
383.60,85.17543
383.80,85.19810
384.00,85.18883
384.20,85.18388
384.40,85.22160
384.60,85.21227
384.80,85.22487
385.00,85.23641
385.20,85.25448
385.40,85.27225
385.60,85.30022
385.80,85.24874
386.00,85.26816
386.20,85.29189
386.40,85.31505
386.60,85.31260
386.80,85.39033
387.00,85.35978
387.20,85.38119
387.40,85.32173
387.60,85.31231
387.80,85.25527
388.00,85.30977
388.20,85.26568
388.40,85.25769
388.60,85.24756
388.80,85.26009
389.00,85.14360
389.20,85.12039
389.40,85.16910
389.60,85.15942
389.80,85.18957
390.00,85.25325
390.20,85.29738
390.40,85.25619
390.60,85.30109
390.80,85.25958
391.00,85.22412
391.20,85.18426
391.40,85.23560
391.60,85.21776
391.80,85.24321
392.00,85.25417
392.20,85.27124
392.40,85.26785
392.60,85.28538
392.80,85.27232
393.00,85.31137
393.20,85.32231
393.40,85.31148
393.60,85.32517
393.80,85.35674
394.00,85.35193
394.20,85.36246
394.40,85.32879
394.60,85.22947
394.80,85.17194
395.00,85.15298
395.20,85.15159
395.40,85.18271
395.60,85.23676
395.80,85.28675
396.00,85.32798
396.20,85.33430
396.40,85.34827
396.60,85.37161
396.80,85.33105
397.00,85.24267
397.20,85.23304
397.40,85.24317
397.60,85.23243
397.80,85.26348
398.00,85.28950
398.20,85.31754
398.40,85.29437
398.60,85.29575
398.80,85.29961
399.00,85.36388
399.20,85.36352
399.40,85.41160
399.60,85.39331
399.80,85.38365
400.00,85.35663
400.20,85.33067
400.40,85.26814
400.60,85.27819
400.80,85.24616
401.00,85.27884
401.20,85.24323
401.40,85.23216
401.60,85.25075
401.80,85.26160
402.00,85.25082
402.20,85.30143
402.40,85.33598
402.60,85.29829
402.80,85.33205
403.00,85.30556
403.20,85.29818
403.40,85.29273
403.60,85.34625
403.80,85.34078
404.00,85.31647
404.20,85.31459
404.40,85.29069
404.60,85.25876
404.80,85.30221
405.00,85.34920
405.20,85.32179
405.40,85.33763
405.60,85.29927
405.80,85.27862
406.00,85.23891
406.20,85.21522
406.40,85.23827
406.60,85.33540
406.80,85.33701
407.00,85.34436
407.20,85.38840
407.40,85.38792
407.60,85.33960
407.80,85.32600
408.00,85.37263
408.20,85.38374
408.40,85.33003
408.60,85.35194
408.80,85.33156
409.00,85.31101
409.20,85.31249
409.40,85.32829
409.60,85.30577
409.80,85.29325
410.00,85.32534
410.20,85.32119
410.40,85.33469
410.60,85.35845
410.80,85.40361
411.00,85.37456
411.20,85.38225
411.40,85.39585
411.60,85.37544
411.80,85.39056
412.00,85.40933
412.20,85.42708
412.40,85.43675
412.60,85.43519
412.80,85.40660
413.00,85.38985
413.20,85.36549
413.40,85.30821
413.60,85.28148
413.80,85.27336
414.00,85.29670
414.20,85.26029
414.40,85.30577
414.60,85.33328
414.80,85.34845
415.00,85.28612
415.20,85.32000
415.40,85.33762
415.60,85.32317
415.80,85.29518
416.00,85.32776
416.20,85.31165
416.40,85.28218
416.60,85.31685
416.80,85.30873
417.00,85.27647
417.20,85.28823
417.40,85.26959
417.60,85.25170
417.80,85.27508
418.00,85.29067
418.20,85.31932
418.40,85.34251
418.60,85.35105
418.80,85.37071
419.00,85.40549
419.20,85.38394
419.40,85.40863
419.60,85.42355
419.80,85.40565
420.00,85.37209
420.20,85.36931
420.40,85.33800
420.60,85.30934
420.80,85.30058
421.00,85.31724
421.20,85.31786
421.40,85.27883
421.60,85.27175
421.80,85.25688
422.00,85.27731
422.20,85.27892
422.40,85.33064
422.60,85.30023
422.80,85.35650
423.00,85.33224
423.20,85.32186
423.40,85.35322
423.60,85.37255
423.80,85.37440
424.00,85.37709
424.20,85.37443
424.40,85.35821
424.60,85.36952
424.80,85.32263
425.00,85.32677
425.20,85.34698
425.40,85.33540
425.60,85.36119
425.80,85.34938
426.00,85.35681
426.20,85.34209
426.40,85.33685
426.60,85.32402
426.80,85.30488
427.00,85.30687
427.20,85.33481
427.40,85.35857
427.60,85.33306
427.80,85.39351
428.00,85.38499
428.20,85.36096
428.40,85.35292
428.60,85.39628
428.80,85.36105
429.00,85.35268
429.20,85.33980
429.40,85.33494
429.60,85.32817
429.80,85.33318
430.00,85.34698
430.20,85.38376
430.40,85.38347
430.60,85.36751
430.80,85.36808
431.00,85.36519
431.20,85.32864
431.40,85.35011
431.60,85.39148
431.80,85.42279
432.00,85.46960
432.20,85.48503
432.40,85.45586
432.60,85.36919
432.80,85.32696
433.00,85.28267
433.20,85.28399
433.40,85.27891
433.60,85.32742
433.80,85.37048
434.00,85.38042
434.20,85.38812
434.40,85.38469
434.60,85.38930
434.80,85.36710
435.00,85.35470
435.20,85.35066
435.40,85.35014
435.60,85.35368
435.80,85.32835
436.00,85.35080
436.20,85.36568
436.40,85.37605
436.60,85.37135
436.80,85.40155
437.00,85.37785
437.20,85.35600
437.40,85.36127
437.60,85.40530
437.80,85.42645
438.00,85.42766
438.20,85.42076
438.40,85.40762
438.60,85.38213
438.80,85.36445
439.00,85.38755
439.20,85.41921
439.40,85.46104
439.60,85.45412
439.80,85.45262
440.00,85.44507
440.20,85.42546
440.40,85.41945
440.60,85.42674
440.80,85.42263
441.00,85.38744
441.20,85.39889
441.40,85.37538
441.60,85.35320
441.80,85.37056
442.00,85.40975
442.20,85.43050
442.40,85.44301
442.60,85.46074
442.80,85.44334
443.00,85.43532
443.20,85.40898
443.40,85.40126
443.60,85.39805
443.80,85.39277
444.00,85.36973
444.20,85.35435
444.40,85.37560
444.60,85.35012
444.80,85.34281
445.00,85.38173
445.20,85.38658
445.40,85.37650
445.60,85.39715
445.80,85.39987
446.00,85.39194
446.20,85.38211
446.40,85.38122
446.60,85.40023
446.80,85.41090
447.00,85.40402
447.20,85.41932
447.40,85.43411
447.60,85.41317
447.80,85.41051
448.00,85.39455
448.20,85.39028
448.40,85.38554
448.60,85.42252
448.80,85.42385
449.00,85.45341
449.20,85.47810
449.40,85.44842
449.60,85.36357
449.80,85.36789
450.00,85.36623
450.20,85.37825
450.40,85.40996
450.60,85.45586
450.80,85.47218
451.00,85.44496
451.20,85.43062
451.40,85.38014
451.60,85.37282
451.80,85.36478
452.00,85.37121
452.20,85.38734
452.40,85.45170
452.60,85.45960
452.80,85.47548
453.00,85.48492
453.20,85.46044
453.40,85.42004
453.60,85.42733
453.80,85.43597
454.00,85.44423
454.20,85.44238
454.40,85.46462
454.60,85.44093
454.80,85.44388
455.00,85.42526
455.20,85.45944
455.40,85.45775
455.60,85.46786
455.80,85.45388
456.00,85.43968
456.20,85.42148
456.40,85.40421
456.60,85.41979
456.80,85.41486
457.00,85.42833
457.20,85.40887
457.40,85.37891
457.60,85.38552
457.80,85.34657
458.00,85.37577
458.20,85.41891
458.40,85.44521
458.60,85.42938
458.80,85.48007
459.00,85.46605
459.20,85.40688
459.40,85.45105
459.60,85.44185
459.80,85.43410
460.00,85.42796
460.20,85.44084
460.40,85.39662
460.60,85.37247
460.80,85.37511
461.00,85.34420
461.20,85.36534
461.40,85.36545
461.60,85.41911
461.80,85.40837
462.00,85.43472
462.20,85.42901
462.40,85.43553
462.60,85.42883
462.80,85.42860
463.00,85.41405
463.20,85.41313
463.40,85.42552
463.60,85.40495
463.80,85.42494
464.00,85.44127
464.20,85.40298
464.40,85.44350
464.60,85.44917
464.80,85.41965
465.00,85.43202
465.20,85.44998
465.40,85.40737
465.60,85.39670
465.80,85.39028
466.00,85.37366
466.20,85.39597
466.40,85.39382
466.60,85.45225
466.80,85.47240
467.00,85.49838
467.20,85.48274
467.40,85.46957
467.60,85.45358
467.80,85.45042
468.00,85.42251
468.20,85.41868
468.40,85.43807
468.60,85.42579
468.80,85.42289
469.00,85.44225
469.20,85.46066
469.40,85.45317
469.60,85.44996
469.80,85.46230
470.00,85.44323
470.20,85.43762
470.40,85.43178
470.60,85.42174
470.80,85.40502
471.00,85.42768
471.20,85.41911
471.40,85.41995
471.60,85.43119
471.80,85.43097
472.00,85.43736
472.20,85.44258
472.40,85.44639
472.60,85.47220
472.80,85.48763
473.00,85.45622
473.20,85.44966
473.40,85.46281
473.60,85.45628
473.80,85.43596
474.00,85.43786
474.20,85.43215
474.40,85.43477
474.60,85.39363
474.80,85.39404
475.00,85.40908
475.20,85.42727
475.40,85.39475
475.60,85.42683
475.80,85.46382
476.00,85.45663
476.20,85.46299
476.40,85.50136
476.60,85.48350
476.80,85.46255
477.00,85.44905
477.20,85.46097
477.40,85.45201
477.60,85.45387
477.80,85.46458
478.00,85.51102
478.20,85.50425
478.40,85.49203
478.60,85.50217
478.80,85.49725
479.00,85.46925
479.20,85.43702
479.40,85.42745
479.60,85.42805
479.80,85.43590
480.00,85.43887
480.20,85.45834
480.40,85.48003
480.60,85.48060
480.80,85.49095
481.00,85.50493
481.20,85.51015
481.40,85.52007
481.60,85.50023
481.80,85.46805
482.00,85.46385
482.20,85.47050
482.40,85.45557
482.60,85.46763
482.80,85.48189
483.00,85.48344
483.20,85.48353
483.40,85.46432
483.60,85.51369
483.80,85.52610
484.00,85.52573
484.20,85.53513
484.40,85.52802
484.60,85.48808
484.80,85.46606
485.00,85.47001
485.20,85.46611
485.40,85.49187
485.60,85.50811
485.80,85.51483
486.00,85.51409
486.20,85.51515
486.40,85.51241
486.60,85.49815
486.80,85.50752
487.00,85.50418
487.20,85.48741
487.40,85.47624
487.60,85.47078
487.80,85.47082
488.00,85.46349
488.20,85.49491
488.40,85.50085
488.60,85.47791
488.80,85.44761
489.00,85.42024
489.20,85.38373
489.40,85.38993
489.60,85.41826
489.80,85.43366
490.00,85.47127
490.20,85.47873
490.40,85.48412
490.60,85.49159
490.80,85.49347
491.00,85.50203
491.20,85.50832
491.40,85.49477
491.60,85.47710
491.80,85.49595
492.00,85.48824
492.20,85.49513
492.40,85.51363
492.60,85.53185
492.80,85.51646
493.00,85.49795
493.20,85.48192
493.40,85.48247
493.60,85.47590
493.80,85.48114
494.00,85.50712
494.20,85.49797
494.40,85.48399
494.60,85.48130
494.80,85.50060
495.00,85.49876
495.20,85.52169
495.40,85.53483
495.60,85.51604
495.80,85.50069
496.00,85.48726
496.20,85.49089
496.40,85.48087
496.60,85.49203
496.80,85.48347
497.00,85.48282
497.20,85.49089
497.40,85.47662
497.60,85.49398
497.80,85.52655
498.00,85.55516
498.20,85.52727
498.40,85.55597
498.60,85.54173
498.80,85.53601
499.00,85.49275
499.20,85.51881
499.40,85.51946
499.60,85.51085
499.80,85.47572
500.00,85.46946
500.20,85.46289
500.40,85.44796
500.60,85.44499
500.80,85.45582
501.00,85.49412
501.20,85.51533
501.40,85.50560
501.60,85.52834
501.80,85.53515
502.00,85.53053
502.20,85.51109
502.40,85.55714
502.60,85.54032
502.80,85.55345
503.00,85.55044
503.20,85.53469
503.40,85.49030
503.60,85.50053
503.80,85.48161
504.00,85.47015
504.20,85.48221
504.40,85.49170
504.60,85.46680
504.80,85.48594
505.00,85.49415
505.20,85.49346
505.40,85.47650
505.60,85.50354
505.80,85.47766
506.00,85.46072
506.20,85.43587
506.40,85.45126
506.60,85.44269
506.80,85.45644
507.00,85.47053
507.20,85.47846
507.40,85.49331
507.60,85.49536
507.80,85.49425
508.00,85.51245
508.20,85.51627
508.40,85.46371
508.60,85.49359
508.80,85.47744
509.00,85.48448
509.20,85.49955
509.40,85.54587
509.60,85.55830
509.80,85.56742
510.00,85.54738
510.20,85.55670
510.40,85.57594
510.60,85.54628
510.80,85.55570
511.00,85.55807
511.20,85.56769
511.40,85.54890
511.60,85.54611
511.80,85.53461
512.00,85.52413
512.20,85.48684
512.40,85.48183
512.60,85.48350
512.80,85.47357
513.00,85.46432
513.20,85.48942
513.40,85.47919
513.60,85.48404
513.80,85.49560
514.00,85.51713
514.20,85.51325
514.40,85.54100
514.60,85.52168
514.80,85.50521
515.00,85.49628
515.20,85.47849
515.40,85.43621
515.60,85.45502
515.80,85.47583
516.00,85.48783
516.20,85.49780
516.40,85.50292
516.60,85.52060
516.80,85.51793
517.00,85.49131
517.20,85.48668
517.40,85.53352
517.60,85.51806
517.80,85.53212
518.00,85.53970
518.20,85.56151
518.40,85.54400
518.60,85.54429
518.80,85.55464
519.00,85.56655
519.20,85.56325
519.40,85.56593
519.60,85.55647
519.80,85.54786
520.00,85.56685
520.20,85.54895
520.40,85.54116
520.60,85.54966
520.80,85.54532
521.00,85.52236
521.20,85.52837
521.40,85.52288
521.60,85.52737
521.80,85.52803
522.00,85.54317
522.20,85.54559
522.40,85.51973
522.60,85.49116
522.80,85.49619
523.00,85.47020
523.20,85.48273
523.40,85.52533
523.60,85.54497
523.80,85.53885
524.00,85.55535
524.20,85.53305
524.40,85.52385
524.60,85.47804
524.80,85.49031
525.00,85.48846
525.20,85.50442
525.40,85.51009
525.60,85.55571
525.80,85.56602
526.00,85.54502
526.20,85.55766
526.40,85.55029
526.60,85.53740
526.80,85.51036
527.00,85.50899
527.20,85.49677
527.40,85.48088
527.60,85.49232
527.80,85.47532
528.00,85.49385
528.20,85.50118
528.40,85.50349
528.60,85.49345
528.80,85.51089
529.00,85.49850
529.20,85.48974
529.40,85.51412
529.60,85.50083
529.80,85.50102
530.00,85.50668
530.20,85.49110
530.40,85.47356
530.60,85.48009
530.80,85.46436
531.00,85.48100
531.20,85.48825
531.40,85.47263
531.60,85.49148
531.80,85.50875
532.00,85.49326
532.20,85.52910
532.40,85.54753
532.60,85.55630
532.80,85.54428
533.00,85.55284
533.20,85.49529
533.40,85.48987
533.60,85.47848
533.80,85.45687
534.00,85.44963
534.20,85.50444
534.40,85.51794
534.60,85.52384
534.80,85.59366
535.00,85.59791
535.20,85.57848
535.40,85.57914
535.60,85.60455
535.80,85.57875
536.00,85.59198
536.20,85.59636
536.40,85.59669
536.60,85.56205
536.80,85.53784
537.00,85.54186
537.20,85.54698
537.40,85.54661
537.60,85.54771
537.80,85.54394
538.00,85.55320
538.20,85.54674
538.40,85.53396
538.60,85.55723
538.80,85.57112
539.00,85.55164
539.20,85.53770
539.40,85.54502
539.60,85.53051
539.80,85.53770
540.00,85.55498
540.20,85.58407
540.40,85.58791
540.60,85.59905
540.80,85.59593
541.00,85.57808
541.20,85.57759
541.40,85.56975
541.60,85.57255
541.80,85.58348
542.00,85.57786
542.20,85.56508
542.40,85.57478
542.60,85.57723
542.80,85.58052
543.00,85.58698
543.20,85.62145
543.40,85.62714
543.60,85.63116
543.80,85.59458
544.00,85.61785
544.20,85.56189
544.40,85.56734
544.60,85.55086
544.80,85.54206
545.00,85.52317
545.20,85.53364
545.40,85.49936
545.60,85.49278
545.80,85.50924
546.00,85.53184
546.20,85.54164
546.40,85.56294
546.60,85.55214
546.80,85.54708
547.00,85.49473
547.20,85.47935
547.40,85.45714
547.60,85.49132
547.80,85.51600
548.00,85.54410
548.20,85.56355
548.40,85.58669
548.60,85.56254
548.80,85.58519
549.00,85.59861
549.20,85.59949
549.40,85.60691
549.60,85.62300
549.80,85.60345
550.00,85.59846
550.20,85.60608
550.40,85.63307
550.60,85.61672
550.80,85.62989
551.00,85.61941
551.20,85.62366
551.40,85.56742
551.60,85.57619
551.80,85.57729
552.00,85.61234
552.20,85.60951
552.40,85.63876
552.60,85.64380
552.80,85.63123
553.00,85.59445
553.20,85.58688
553.40,85.60246
553.60,85.59595
553.80,85.60578
554.00,85.60726
554.20,85.62087
554.40,85.59448
554.60,85.58164
554.80,85.59522
555.00,85.59746
555.20,85.59572
555.40,85.62834
555.60,85.65090
555.80,85.62279
556.00,85.63197
556.20,85.61745
556.40,85.61311
556.60,85.62138
556.80,85.60991
557.00,85.61701
557.20,85.62179
557.40,85.59412
557.60,85.56805
557.80,85.57603
558.00,85.53213
558.20,85.50234
558.40,85.50584
558.60,85.50082
558.80,85.48807
559.00,85.56135
559.20,85.59567
559.40,85.60189
559.60,85.62828
559.80,85.65813
560.00,85.65412
560.20,85.64800
560.40,85.65547
560.60,85.64178
560.80,85.62410
561.00,85.59780
561.20,85.57680
561.40,85.57448
561.60,85.53815
561.80,85.55165
562.00,85.55296
562.20,85.56777
562.40,85.56858
562.60,85.58028
562.80,85.56630
563.00,85.56836
563.20,85.57298
563.40,85.56182
563.60,85.59000
563.80,85.56693
564.00,85.54254
564.20,85.55327
564.40,85.55021
564.60,85.53478
564.80,85.55282
565.00,85.57331
565.20,85.55812
565.40,85.56515
565.60,85.59228
565.80,85.61549
566.00,85.59865
566.20,85.58235
566.40,85.58781
566.60,85.58457
566.80,85.59924
567.00,85.60484
567.20,85.60980
567.40,85.58747
567.60,85.57439
567.80,85.56135
568.00,85.54361
568.20,85.55830
568.40,85.58046
568.60,85.58655
568.80,85.55818
569.00,85.57800
569.20,85.53070
569.40,85.52871
569.60,85.53718
569.80,85.53239
570.00,85.51535
570.20,85.54289
570.40,85.54842
570.60,85.52837
570.80,85.51646
571.00,85.52207
571.20,85.54915
571.40,85.56128
571.60,85.56141
571.80,85.58677
572.00,85.58503
572.20,85.58919
572.40,85.57498
572.60,85.59074
572.80,85.58434
573.00,85.62782
573.20,85.62301
573.40,85.61623
573.60,85.61180
573.80,85.63100
574.00,85.57251
574.20,85.56314
574.40,85.58398
574.60,85.59153
574.80,85.59739
575.00,85.63671
575.20,85.64420
575.40,85.62785
575.60,85.62859
575.80,85.60616
576.00,85.57382
576.20,85.57320
576.40,85.56276
576.60,85.52859
576.80,85.56556
577.00,85.58993
577.20,85.56635
577.40,85.58317
577.60,85.58877
577.80,85.59105
578.00,85.60922
578.20,85.63123
578.40,85.64250
578.60,85.69157
578.80,85.66614
579.00,85.66165
579.20,85.63890
579.40,85.59673
579.60,85.54884
579.80,85.56297
580.00,85.54279
580.20,85.56465
580.40,85.57139
580.60,85.59306
580.80,85.57073
581.00,85.56236
581.20,85.52502
581.40,85.54714
581.60,85.54745
581.80,85.53249
582.00,85.55614
582.20,85.60652
582.40,85.60610
582.60,85.59510
582.80,85.60299
583.00,85.57491
583.20,85.55058
583.40,85.56173
583.60,85.55660
583.80,85.60674
584.00,85.62813
584.20,85.64112
584.40,85.64218
584.60,85.68543
584.80,85.65941
585.00,85.65904
585.20,85.66300
585.40,85.64458
585.60,85.61483
585.80,85.60978
586.00,85.60539
586.20,85.61259
586.40,85.60118
586.60,85.58729
586.80,85.54869
587.00,85.57220
587.20,85.56718
587.40,85.59070
587.60,85.59538
587.80,85.64366
588.00,85.61445
588.20,85.59538
588.40,85.59924
588.60,85.61800
588.80,85.60314
589.00,85.61955
589.20,85.64309
589.40,85.62150
589.60,85.59475
589.80,85.60335
590.00,85.58595
590.20,85.55491
590.40,85.57365
590.60,85.58634
590.80,85.58239
591.00,85.63136
591.20,85.62440
591.40,85.62531
591.60,85.63072
591.80,85.66018
592.00,85.60480
592.20,85.64605
592.40,85.62764
592.60,85.62562
592.80,85.60373
593.00,85.63047
593.20,85.62088
593.40,85.61391
593.60,85.58815
593.80,85.62033
594.00,85.60006
594.20,85.59262
594.40,85.63225
594.60,85.67183
594.80,85.63964
595.00,85.66459
595.20,85.65415
595.40,85.64317
595.60,85.62537
595.80,85.61897
596.00,85.61955
596.20,85.63976
596.40,85.64545
596.60,85.66982
596.80,85.67129
597.00,85.65720
597.20,85.65353
597.40,85.64407
597.60,85.65317
597.80,85.62884
598.00,85.63482
598.20,85.63778
598.40,85.64004
598.60,85.64183
598.80,85.68025
599.00,85.68321
599.20,85.69039
599.40,85.68754
599.60,85.68057
599.80,85.64162
600.00,85.64532
600.20,85.64487
600.40,85.64001
600.60,85.61764
600.80,85.64829
601.00,85.63786
601.20,85.62799
601.40,85.63269
601.60,85.62598
601.80,85.63383
602.00,85.64798
602.20,85.62647
602.40,85.63350
602.60,85.65590
602.80,85.66628
603.00,85.64718
603.20,85.66080
603.40,85.66094
603.60,85.65723
603.80,85.63378
604.00,85.65364
604.20,85.66115
604.40,85.64221
604.60,85.64007
604.80,85.63890
605.00,85.63463
605.20,85.63297
605.40,85.63613
605.60,85.63704
605.80,85.65605
606.00,85.65910
606.20,85.65881
606.40,85.65436
606.60,85.66063
606.80,85.64520
607.00,85.61952
607.20,85.62477
607.40,85.63927
607.60,85.61909
607.80,85.62162
608.00,85.62163
608.20,85.60570
608.40,85.60527
608.60,85.63751
608.80,85.64079
609.00,85.69203
609.20,85.72136
609.40,85.74827
609.60,85.72955
609.80,85.72046
610.00,85.69293
610.20,85.66658
610.40,85.62965
610.60,85.61332
610.80,85.62762
611.00,85.62309
611.20,85.63737
611.40,85.65208
611.60,85.64350
611.80,85.60069
612.00,85.59746
612.20,85.59619
612.40,85.59581
612.60,85.60048
612.80,85.63929
613.00,85.65750
613.20,85.64845
613.40,85.64084
613.60,85.67427
613.80,85.66475
614.00,85.64641
614.20,85.65758
614.40,85.64903
614.60,85.64541
614.80,85.66276
615.00,85.68856
615.20,85.69483
615.40,85.69322
615.60,85.67141
615.80,85.67420
616.00,85.63346
616.20,85.64091
616.40,85.64162
616.60,85.67218
616.80,85.65118
617.00,85.66860
617.20,85.64217
617.40,85.65685
617.60,85.63319
617.80,85.63243
618.00,85.61497
618.20,85.62976
618.40,85.61082
618.60,85.60827
618.80,85.61499
619.00,85.61283
619.20,85.60854
619.40,85.62660
619.60,85.61781
619.80,85.60838
620.00,85.63156
620.20,85.61702
620.40,85.61992
620.60,85.62600
620.80,85.62410
621.00,85.60407
621.20,85.60497
621.40,85.59316
621.60,85.59949
621.80,85.58563
622.00,85.58684
622.20,85.57804
622.40,85.57900
622.60,85.56394
622.80,85.59262
623.00,85.59332
623.20,85.62901
623.40,85.64473
623.60,85.66061
623.80,85.65068
624.00,85.66560
624.20,85.64222
624.40,85.63612
624.60,85.65158
624.80,85.64940
625.00,85.62893
625.20,85.63963
625.40,85.64790
625.60,85.64211
625.80,85.65025
626.00,85.67582
626.20,85.66905
626.40,85.64475
626.60,85.61525
626.80,85.61279
627.00,85.61895
627.20,85.64844
627.40,85.63021
627.60,85.66890
627.80,85.65696
628.00,85.62745
628.20,85.60342
628.40,85.64748
628.60,85.63607
628.80,85.63983
629.00,85.63685
629.20,85.63221
629.40,85.60897
629.60,85.58606
629.80,85.62315
630.00,85.63946
630.20,85.64948
630.40,85.64674
630.60,85.66780
630.80,85.63435
631.00,85.62189
631.20,85.59153
631.40,85.59849
631.60,85.60808
631.80,85.61715
632.00,85.61411
632.20,85.63697
632.40,85.60911
632.60,85.58435
632.80,85.59492
633.00,85.63529
633.20,85.64394
633.40,85.66849
633.60,85.66322
633.80,85.65615
634.00,85.63251
634.20,85.60106
634.40,85.62575
634.60,85.63532
634.80,85.62132
635.00,85.63924
635.20,85.63991
635.40,85.64268
635.60,85.63298
635.80,85.64319
636.00,85.63987
636.20,85.64651
636.40,85.63173
636.60,85.63933
636.80,85.63316
637.00,85.63225
637.20,85.66129
637.40,85.67226
637.60,85.67826
637.80,85.65409
638.00,85.65755
638.20,85.65853
638.40,85.63184
638.60,85.61586
638.80,85.63824
639.00,85.60982
639.20,85.59066
639.40,85.62398
639.60,85.62508
639.80,85.63337
640.00,85.60933
640.20,85.61188
640.40,85.58183
640.60,85.58192
640.80,85.56564
641.00,85.57776
641.20,85.57585
641.40,85.55510
641.60,85.56004
641.80,85.56674
642.00,85.60255
642.20,85.61332
642.40,85.63197
642.60,85.64421
642.80,85.65586
643.00,85.65761
643.20,85.68514
643.40,85.68857
643.60,85.67268
643.80,85.66409
644.00,85.63151
644.20,85.60463
644.40,85.60191
644.60,85.63688
644.80,85.62251
645.00,85.62625
645.20,85.60382
645.40,85.59854
645.60,85.56149
645.80,85.56107
646.00,85.56648
646.20,85.58401
646.40,85.60066
646.60,85.60942
646.80,85.65537
647.00,85.67985
647.20,85.66647
647.40,85.64744
647.60,85.63297
647.80,85.62352
648.00,85.56920
648.20,85.53343
648.40,85.56969
648.60,85.58639
648.80,85.59636
649.00,85.64827
649.20,85.69124
649.40,85.65823
649.60,85.67096
649.80,85.62691
650.00,85.59294
650.20,85.56507
650.40,85.61574
650.60,85.61894
650.80,85.63910
651.00,85.64107
651.20,85.67012
651.40,85.64315
651.60,85.65570
651.80,85.65108
652.00,85.66374
652.20,85.67477
652.40,85.67966
652.60,85.64635
652.80,85.64620
653.00,85.66753
653.20,85.63524
653.40,85.61648
653.60,85.63753
653.80,85.63833
654.00,85.63701
654.20,85.65546
654.40,85.67067
654.60,85.65878
654.80,85.65387
655.00,85.60862
655.20,85.58287
655.40,85.58938
655.60,85.57207
655.80,85.56287
656.00,85.57630
656.20,85.60035
656.40,85.62317
656.60,85.65691
656.80,85.69164
657.00,85.72207
657.20,85.77034
657.40,85.72888
657.60,85.68956
657.80,85.66647
658.00,85.67669
658.20,85.63555
658.40,85.65875
658.60,85.67775
658.80,85.68840
659.00,85.64527
659.20,85.66005
659.40,85.64597
659.60,85.62905
659.80,85.62437
660.00,85.63197
660.20,85.60692
660.40,85.59192
660.60,85.58835
660.80,85.56821
661.00,85.55314
661.20,85.54412
661.40,85.57025
661.60,85.59095
661.80,85.64231
662.00,85.70186
662.20,85.71232
662.40,85.70345
662.60,85.71391
662.80,85.69431
663.00,85.66500
663.20,85.65645
663.40,85.62509
663.60,85.63674
663.80,85.62369
664.00,85.64000
664.20,85.65038
664.40,85.67417
664.60,85.67366
664.80,85.64886
665.00,85.62014
665.20,85.60887
665.40,85.59908
665.60,85.59974
665.80,85.68337
666.00,85.68683
666.20,85.73350
666.40,85.75137
666.60,85.76015
666.80,85.71470
667.00,85.71845
667.20,85.68623
667.40,85.69182
667.60,85.65066
667.80,85.63122
668.00,85.61792
668.20,85.63020
668.40,85.63930
668.60,85.67680
668.80,85.70717
669.00,85.73735
669.20,85.71851
669.40,85.70800
669.60,85.66826
669.80,85.65032
670.00,85.62025
670.20,85.65226
670.40,85.65409
670.60,85.65934
670.80,85.65481
671.00,85.70933
671.20,85.69102
671.40,85.68313
671.60,85.70588
671.80,85.70829
672.00,85.66608
672.20,85.67363
672.40,85.66914
672.60,85.63183
672.80,85.61730
673.00,85.61205
673.20,85.56497
673.40,85.55211
673.60,85.56176
673.80,85.58563
674.00,85.59593
674.20,85.64514
674.40,85.64675
674.60,85.64508
674.80,85.63559
675.00,85.58386
675.20,85.55614
675.40,85.56462
675.60,85.57916
675.80,85.63789
676.00,85.69322
676.20,85.71222
676.40,85.72819
676.60,85.74803
676.80,85.66009
677.00,85.70876
677.20,85.72838
677.40,85.72004
677.60,85.70851
677.80,85.70595
678.00,85.64872
678.20,85.61266
678.40,85.57323
678.60,85.61262
678.80,85.67676
679.00,85.66008
679.20,85.66533
679.40,85.72831
679.60,85.71098
679.80,85.69031
680.00,85.76071
680.20,85.76424
680.40,85.71718
680.60,85.68581
680.80,85.65670
681.00,85.62461
681.20,85.59992
681.40,85.64312
681.60,85.63185
681.80,85.65695
682.00,85.64409
682.20,85.69822
682.40,85.66916
682.60,85.68767
682.80,85.66636
683.00,85.66801
683.20,85.64067
683.40,85.65639
683.60,85.69639
683.80,85.73349
684.00,85.74015
684.20,85.75436
684.40,85.74846
684.60,85.72019
684.80,85.74253
685.00,85.75407
685.20,85.71349
685.40,85.69382
685.60,85.67275
685.80,85.63466
686.00,85.61477
686.20,85.65947
686.40,85.69145
686.60,85.71039
686.80,85.74569
687.00,85.74902
687.20,85.77211
687.40,85.77629
687.60,85.75600
687.80,85.74904
688.00,85.79292
688.20,85.78269
688.40,85.78072
688.60,85.82813
688.80,85.75778
689.00,85.73723
689.20,85.74554
689.40,85.76546
689.60,85.77683
689.80,85.84723
690.00,85.85109
690.20,85.79317
690.40,85.78227
690.60,85.76558
690.80,85.79508
691.00,85.81008
691.20,85.86157
691.40,85.88030
691.60,85.88151
691.80,85.88518
692.00,85.87715
692.20,85.89804
692.40,85.88411
692.60,85.91413
692.80,85.87544
693.00,85.85914
693.20,85.81592
693.40,85.80788
693.60,85.77799
693.80,85.83772
694.00,85.85652
694.20,85.90596
694.40,85.88840
694.60,85.92985
694.80,85.88861
695.00,85.87786
695.20,85.82574
695.40,85.84968
695.60,85.82361
695.80,85.78230
696.00,85.81593
696.20,85.87605
696.40,85.88028
696.60,85.87864
696.80,85.90800
697.00,85.87974
697.20,85.89059
697.40,85.92067
697.60,85.95630
697.80,85.94780
698.00,85.98589
698.20,85.93733
698.40,85.89066
698.60,85.86561
698.80,85.92643
699.00,85.89061
699.20,85.97175
699.40,86.02858
699.60,86.01363
699.80,86.03215
700.00,86.03979
700.20,86.04184
700.40,86.00668
700.60,86.05894
700.80,86.04387
701.00,86.06851
701.20,86.02461
701.40,86.03545
701.60,85.95745
701.80,85.92429
702.00,85.87980
702.20,85.88041
702.40,85.93736
702.60,85.95654
702.80,85.98778
703.00,86.01417
703.20,86.00340
703.40,85.97688
703.60,86.03688
703.80,86.02761
704.00,86.09459
704.20,86.05778
704.40,86.03987
704.60,86.04361
704.80,86.03219
705.00,85.94831
705.20,85.96562
705.40,86.03166
705.60,85.96576
705.80,85.99670
706.00,86.07442
706.20,86.13490
706.40,86.09949
706.60,86.15609
706.80,86.16081
707.00,86.14919
707.20,86.15110
707.40,86.14278
707.60,86.15668
707.80,86.10612
708.00,86.11118
708.20,86.11458
708.40,86.10933
708.60,86.06611
708.80,86.08311
709.00,86.03710
709.20,86.04216
709.40,86.12148
709.60,86.12902
709.80,86.14693
710.00,86.20677
710.20,86.19380
710.40,86.15367
710.60,86.14452
710.80,86.15654
711.00,86.14462
711.20,86.13617
711.40,86.10338
711.60,86.17448
711.80,86.20072
712.00,86.22752
712.20,86.24222
712.40,86.25675
712.60,86.26252
712.80,86.22487
713.00,86.21861
713.20,86.19362
713.40,86.22884
713.60,86.17082
713.80,86.16980
714.00,86.14395
714.20,86.17638
714.40,86.09936
714.60,86.17118
714.80,86.21188
715.00,86.21395
715.20,86.24637
715.40,86.22712
715.60,86.24405
715.80,86.20805
716.00,86.18398
716.20,86.18524
716.40,86.28573
716.60,86.26363
716.80,86.26994
717.00,86.33732
717.20,86.28044
717.40,86.23052
717.60,86.20134
717.80,86.20406
718.00,86.22505
718.20,86.25116
718.40,86.27748
718.60,86.27002
718.80,86.32619
719.00,86.28300
719.20,86.28145
719.40,86.27955
719.60,86.21628
719.80,86.17979
720.00,86.13356
720.20,86.17628
720.40,86.16695
720.60,86.24512
720.80,86.21113
721.00,86.29004
721.20,86.29210
721.40,86.35167
721.60,86.37921
721.80,86.44978
722.00,86.45689
722.20,86.42085
722.40,86.37115
722.60,86.47981
722.80,86.47654
723.00,86.45782
723.20,86.48044
723.40,86.45437
723.60,86.38198
723.80,86.34467
724.00,86.33673
724.20,86.33003
724.40,86.38963
724.60,86.33752
724.80,86.35520
725.00,86.40471
725.20,86.42278
725.40,86.44496
725.60,86.46163
725.80,86.47783
726.00,86.42352
726.20,86.45151
726.40,86.42045
726.60,86.38682
726.80,86.39469
727.00,86.38430
727.20,86.30467
727.40,86.31578
727.60,86.34548
727.80,86.28699
728.00,86.28562
728.20,86.34930
728.40,86.32734
728.60,86.34112
728.80,86.39619
729.00,86.42859
729.20,86.42693
729.40,86.44812
729.60,86.46053
729.80,86.42898
730.00,86.42454
730.20,86.46129
730.40,86.44685
730.60,86.45970
730.80,86.53544
731.00,86.49986
731.20,86.43137
731.40,86.43880
731.60,86.39720
731.80,86.35399
732.00,86.44785
732.20,86.49608
732.40,86.50161
732.60,86.53378
732.80,86.59363
733.00,86.55966
733.20,86.52995
733.40,86.57652
733.60,86.52647
733.80,86.48564
734.00,86.46709
734.20,86.46910
734.40,86.42749
734.60,86.47587
734.80,86.43559
735.00,86.41483
735.20,86.44125
735.40,86.43105
735.60,86.43151
735.80,86.48250
736.00,86.55193
736.20,86.52245
736.40,86.53355
736.60,86.48668
736.80,86.47407
737.00,86.49434
737.20,86.55308
737.40,86.59731
737.60,86.68096
737.80,86.62267
738.00,86.62459
738.20,86.59570
738.40,86.58392
738.60,86.51839
738.80,86.60469
739.00,86.53853
739.20,86.50739
739.40,86.47853
739.60,86.49755
739.80,86.52417
740.00,86.53238
740.20,86.53725
740.40,86.57396
740.60,86.58726
740.80,86.53466
741.00,86.55837
741.20,86.63520
741.40,86.56275
741.60,86.54310
741.80,86.50333
742.00,86.48909
742.20,86.41748
742.40,86.43971
742.60,86.46430
742.80,86.49843
743.00,86.54032
743.20,86.55630
743.40,86.52684
743.60,86.52403
743.80,86.53412
744.00,86.48937
744.20,86.51065
744.40,86.58335
744.60,86.62394
744.80,86.61469
745.00,86.60123
745.20,86.63939
745.40,86.66655
745.60,86.58774
745.80,86.58951
746.00,86.61319
746.20,86.59168
746.40,86.55699
746.60,86.59987
746.80,86.60222
747.00,86.55888
747.20,86.49853
747.40,86.45990
747.60,86.42254
747.80,86.46169
748.00,86.49855
748.20,86.53231
748.40,86.59191
748.60,86.63297
748.80,86.58227
749.00,86.61723
749.20,86.58583
749.40,86.58764
749.60,86.53567
749.80,86.61537
750.00,86.58388
750.20,86.64030
750.40,86.65501
750.60,86.70448
750.80,86.60051
751.00,86.55512
751.20,86.56819
751.40,86.57581
751.60,86.53170
751.80,86.60480
752.00,86.71471
752.20,86.63957
752.40,86.57526
752.60,86.61513
752.80,86.55474
753.00,86.51965
753.20,86.57616
753.40,86.54558
753.60,86.57995
753.80,86.59091
754.00,86.60004
754.20,86.56734
754.40,86.61078
754.60,86.57076
754.80,86.55507
755.00,86.49870
755.20,86.50806
755.40,86.59425
755.60,86.59995
755.80,86.64493
756.00,86.64659
756.20,86.64694
756.40,86.52965
756.60,86.58627
756.80,86.60524
757.00,86.65062
757.20,86.72321
757.40,86.78941
757.60,86.75319
757.80,86.78469
758.00,86.79175
758.20,86.68287
758.40,86.71677
758.60,86.66794
758.80,86.64174
759.00,86.66657
759.20,86.77796
759.40,86.76507
759.60,86.80345
759.80,86.84118
760.00,86.73322
760.20,86.67761
760.40,86.62891
760.60,86.60768
760.80,86.56242
761.00,86.55009
761.20,86.55726
761.40,86.55764
761.60,86.52031
761.80,86.52730
762.00,86.67433
762.20,86.64316
762.40,86.58644
762.60,86.69861
762.80,86.66635
763.00,86.53801
763.20,86.56989
763.40,86.62679
763.60,86.58523
763.80,86.56632
764.00,86.63478
764.20,86.62502
764.40,86.62855
764.60,86.66644
764.80,86.69821
765.00,86.61957
765.20,86.64681
765.40,86.64387
765.60,86.53528
765.80,86.53036
766.00,86.58202
766.20,86.57820
766.40,86.56225
766.60,86.63210
766.80,86.58960
767.00,86.57045
767.20,86.58162
767.40,86.61999
767.60,86.62735
767.80,86.69435
768.00,86.72254
768.20,86.59559
768.40,86.57905
768.60,86.60746
768.80,86.64453
769.00,86.59891
769.20,86.76619
769.40,86.79704
769.60,86.72381
769.80,86.67365
770.00,86.62480
770.20,86.46052
770.40,86.41362
770.60,86.44181
770.80,86.44524
771.00,86.55120
771.20,86.64305
771.40,86.69503
771.60,86.73068
771.80,86.71899
772.00,86.76196
772.20,86.72412
772.40,86.68114
772.60,86.70079
772.80,86.68654
773.00,86.63878
773.20,86.66053
773.40,86.74797
773.60,86.72279
773.80,86.74371
774.00,86.76610
774.20,86.80291
774.40,86.71016
774.60,86.67948
774.80,86.67232
775.00,86.63606
775.20,86.64691
775.40,86.73381
775.60,86.67979
775.80,86.67998
776.00,86.69127
776.20,86.63054
776.40,86.46060
776.60,86.57228
776.80,86.61665
777.00,86.55851
777.20,86.59455
777.40,86.67915
777.60,86.61678
777.80,86.55053
778.00,86.65501
778.20,86.65276
778.40,86.70303
778.60,86.64038
778.80,86.63656
779.00,86.56240
779.20,86.51963
779.40,86.52096
779.60,86.56461
779.80,86.58837
780.00,86.53798
780.20,86.54115
780.40,86.48055
780.60,86.50120
780.80,86.48161
781.00,86.56653
781.20,86.59515
781.40,86.54991
781.60,86.65323
781.80,86.70595
782.00,86.73553
782.20,86.71974
782.40,86.74591
782.60,86.67427
782.80,86.63613
783.00,86.55453
783.20,86.51769
783.40,86.55632
783.60,86.55657
783.80,86.55629
784.00,86.69174
784.20,86.82755
784.40,86.84701
784.60,86.81203
784.80,86.76589
785.00,86.68393
785.20,86.63205
785.40,86.52798
785.60,86.54259
785.80,86.59698
786.00,86.57793
786.20,86.65978
786.40,86.76853
786.60,86.79631
786.80,86.83450
787.00,86.83363
787.20,86.74136
787.40,86.58217
787.60,86.56038
787.80,86.53319
788.00,86.46451
788.20,86.51046
788.40,86.68081
788.60,86.69824
788.80,86.67662
789.00,86.78335
789.20,86.71301
789.40,86.57046
789.60,86.57331
789.80,86.56112
790.00,86.53865
790.20,86.59605
790.40,86.64421
790.60,86.64922
790.80,86.61422
791.00,86.61528
791.20,86.53670
791.40,86.59502
791.60,86.53153
791.80,86.63808
792.00,86.65307
792.20,86.69407
792.40,86.68355
792.60,86.72606
792.80,86.74728
793.00,86.67387
793.20,86.64376
793.40,86.71081
793.60,86.69698
793.80,86.63912
794.00,86.74684
794.20,86.68830
794.40,86.58028
794.60,86.57833
794.80,86.46737
795.00,86.52886
795.20,86.59555
795.40,86.70202
795.60,86.74974
795.80,86.80921
796.00,86.80039
796.20,86.84643
796.40,86.83251
796.60,86.73567
796.80,86.67058
797.00,86.65180
797.20,86.69990
797.40,86.53600
797.60,86.53288
797.80,86.69550
798.00,86.48992
798.20,86.41160
798.40,86.50956
798.60,86.55403
798.80,86.51584
799.00,86.57362
799.20,86.66793
799.40,86.73192
799.60,86.78512
799.80,86.80820
800.00,86.91133
