"ResinSpecR - RawData"
"Wavelength nm.","R%"
200.00,31.45385
200.20,31.13254
200.40,30.68673
200.60,30.44519
200.80,29.64323
201.00,29.57504
201.20,28.99771
201.40,28.41329
201.60,27.82026
201.80,27.60152
202.00,27.16392
202.20,27.05761
202.40,26.85739
202.60,26.60404
202.80,26.22660
203.00,25.54428
203.20,25.12158
203.40,24.81962
203.60,24.26113
203.80,23.89495
204.00,23.95539
204.20,23.70656
204.40,23.74805
204.60,23.66797
204.80,23.56011
205.00,23.09724
205.20,22.71692
205.40,22.12398
205.60,21.91401
205.80,21.76178
206.00,21.49443
206.20,21.23121
206.40,20.89376
206.60,20.62670
206.80,20.16689
207.00,19.90771
207.20,19.82870
207.40,19.72729
207.60,19.45452
207.80,19.41767
208.00,19.15920
208.20,19.11351
208.40,19.12854
208.60,18.87453
208.80,18.72382
209.00,18.64790
209.20,18.34961
209.40,18.03875
209.60,17.94677
209.80,17.81432
210.00,17.79172
210.20,17.59153
210.40,17.51130
210.60,17.48027
210.80,17.31151
211.00,17.02987
211.20,16.98073
211.40,16.79677
211.60,16.61357
211.80,16.50385
212.00,16.41510
212.20,16.33793
212.40,16.31702
212.60,16.29373
212.80,16.16230
213.00,16.06663
213.20,15.88252
213.40,15.73525
213.60,15.57711
213.80,15.56900
214.00,15.53548
214.20,15.46535
214.40,15.44420
214.60,15.27965
214.80,15.20794
215.00,14.99372
215.20,14.94072
215.40,14.86484
215.60,14.92056
215.80,14.84775
216.00,14.93978
216.20,14.96882
216.40,14.88757
216.60,14.79987
216.80,14.72294
217.00,14.65408
217.20,14.58485
217.40,14.56126
217.60,14.56986
217.80,14.51743
218.00,14.47265
218.20,14.37198
218.40,14.35077
218.60,14.26099
218.80,14.19031
219.00,14.18886
219.20,14.19867
219.40,14.20630
219.60,14.14316
219.80,14.15371
220.00,14.05966
220.20,14.00339
220.40,13.91275
220.60,13.87136
220.80,13.87896
221.00,13.82605
221.20,13.72901
221.40,13.62694
221.60,13.57160
221.80,13.47022
222.00,13.49610
222.20,13.50470
222.40,13.50283
222.60,13.51801
222.80,13.45763
223.00,13.43787
223.20,13.41674
223.40,13.40195
223.60,13.37356
223.80,13.31444
224.00,13.24623
224.20,13.26689
224.40,13.18747
224.60,13.11021
224.80,13.13116
225.00,12.99271
225.20,12.86308
225.40,12.87410
225.60,12.79649
225.80,12.77903
226.00,12.79759
226.20,12.77030
226.40,12.69539
226.60,12.71470
226.80,12.71494
227.00,12.72175
227.20,12.66378
227.40,12.61951
227.60,12.59541
227.80,12.46855
228.00,12.39743
228.20,12.38139
228.40,12.39171
228.60,12.35101
228.80,12.30395
229.00,12.26312
229.20,12.23088
229.40,12.14587
229.60,12.05914
229.80,12.05537
230.00,12.03148
230.20,11.98921
230.40,11.96630
230.60,11.94930
230.80,11.91418
231.00,11.91987
231.20,11.86299
231.40,11.82709
231.60,11.78483
231.80,11.72908
232.00,11.63352
232.20,11.62224
232.40,11.57073
232.60,11.50834
232.80,11.45332
233.00,11.39991
233.20,11.33085
233.40,11.27725
233.60,11.26374
233.80,11.24267
234.00,11.22663
234.20,11.19479
234.40,11.18446
234.60,11.15373
234.80,11.10565
235.00,11.04934
235.20,11.01727
235.40,10.93040
235.60,10.91372
235.80,10.87368
236.00,10.82824
236.20,10.78438
236.40,10.78606
236.60,10.67924
236.80,10.59756
237.00,10.52741
237.20,10.46922
237.40,10.41383
237.60,10.39436
237.80,10.39409
238.00,10.37760
238.20,10.32147
238.40,10.25427
238.60,10.16680
238.80,10.09441
239.00,10.01360
239.20,9.97379
239.40,9.93854
239.60,9.92193
239.80,9.85689
240.00,9.82601
240.20,9.77987
240.40,9.74193
240.60,9.68284
240.80,9.65917
241.00,9.60766
241.20,9.55278
241.40,9.48056
241.60,9.43355
241.80,9.35492
242.00,9.29989
242.20,9.25728
242.40,9.20507
242.60,9.16664
242.80,9.14449
243.00,9.10705
243.20,9.07329
243.40,9.05410
243.60,8.99869
243.80,8.97285
244.00,8.92855
244.20,8.87581
244.40,8.82249
244.60,8.81116
244.80,8.76324
245.00,8.75730
245.20,8.73543
245.40,8.70784
245.60,8.66009
245.80,8.64445
246.00,8.58555
246.20,8.53316
246.40,8.48124
246.60,8.44598
246.80,8.39068
247.00,8.37649
247.20,8.35465
247.40,8.32924
247.60,8.31051
247.80,8.28229
248.00,8.25271
248.20,8.21426
248.40,8.19860
248.60,8.16128
248.80,8.13801
249.00,8.09798
249.20,8.06462
249.40,8.02054
249.60,7.99003
249.80,7.95415
250.00,7.92208
250.20,7.92009
250.40,7.92158
250.60,7.89323
250.80,7.88359
251.00,7.87598
251.20,7.84671
251.40,7.80227
251.60,7.78150
251.80,7.76465
252.00,7.73196
252.20,7.70992
252.40,7.68653
252.60,7.67528
252.80,7.64792
253.00,7.64282
253.20,7.63490
253.40,7.62409
253.60,7.60912
253.80,7.60410
254.00,7.58108
254.20,7.55419
254.40,7.54730
254.60,7.51839
254.80,7.48802
255.00,7.47309
255.20,7.46058
255.40,7.42920
255.60,7.41224
255.80,7.40234
256.00,7.37782
256.20,7.37515
256.40,7.37786
256.60,7.36875
256.80,7.36138
257.00,7.35416
257.20,7.34000
257.40,7.32331
257.60,7.33500
257.80,7.31592
258.00,7.31102
258.20,7.29699
258.40,7.29155
258.60,7.25899
258.80,7.24162
259.00,7.21623
259.20,7.21856
259.40,7.20825
259.60,7.20069
259.80,7.19069
260.00,7.19429
260.20,7.16530
260.40,7.15224
260.60,7.14418
260.80,7.16351
261.00,7.15500
261.20,7.15176
261.40,7.14400
261.60,7.14369
261.80,7.12557
262.00,7.10643
262.20,7.11540
262.40,7.10700
262.60,7.09732
262.80,7.08531
263.00,7.10300
263.20,7.10237
263.40,7.10687
263.60,7.11015
263.80,7.11868
264.00,7.11163
264.20,7.10187
264.40,7.09292
264.60,7.09115
264.80,7.07649
265.00,7.07840
265.20,7.06145
265.40,7.06812
265.60,7.05030
265.80,7.06657
266.00,7.06393
266.20,7.06109
266.40,7.05931
266.60,7.08022
266.80,7.06481
267.00,7.04951
267.20,7.04758
267.40,7.04073
267.60,7.01485
267.80,7.00363
268.00,6.99419
268.20,6.99442
268.40,6.98506
268.60,6.97557
268.80,6.97310
269.00,6.97723
269.20,6.95851
269.40,6.95507
269.60,6.93267
269.80,6.93318
270.00,6.93007
270.20,6.92437
270.40,6.90683
270.60,6.90927
270.80,6.90062
271.00,6.88449
271.20,6.89771
271.40,6.89055
271.60,6.91178
271.80,6.88282
272.00,6.86971
272.20,6.86105
272.40,6.86837
272.60,6.86199
272.80,6.86907
273.00,6.86114
273.20,6.85217
273.40,6.84663
273.60,6.84545
273.80,6.86088
274.00,6.87097
274.20,6.88175
274.40,6.89537
274.60,6.89225
274.80,6.89128
275.00,6.90283
275.20,6.88645
275.40,6.87968
275.60,6.88991
275.80,6.88053
276.00,6.86470
276.20,6.86993
276.40,6.86336
276.60,6.85969
276.80,6.86712
277.00,6.88525
277.20,6.90117
277.40,6.91202
277.60,6.92612
277.80,6.92793
278.00,6.91335
278.20,6.89702
278.40,6.89330
278.60,6.87634
278.80,6.86327
279.00,6.88500
279.20,6.89244
279.40,6.88512
279.60,6.87213
279.80,6.87604
280.00,6.87077
280.20,6.86350
280.40,6.85494
280.60,6.85354
280.80,6.85820
281.00,6.84387
281.20,6.84093
281.40,6.85408
281.60,6.86494
281.80,6.87512
282.00,6.88297
282.20,6.88243
282.40,6.88460
282.60,6.88809
282.80,6.87921
283.00,6.87559
283.20,6.87804
283.40,6.87114
283.60,6.86915
283.80,6.84994
284.00,6.84475
284.20,6.81665
284.40,6.80740
284.60,6.80314
284.80,6.80484
285.00,6.81414
285.20,6.82149
285.40,6.81282
285.60,6.79456
285.80,6.79523
286.00,6.77016
286.20,6.77208
286.40,6.78479
286.60,6.78487
286.80,6.76641
287.00,6.76770
287.20,6.75242
287.40,6.72331
287.60,6.71677
287.80,6.72900
288.00,6.71371
288.20,6.71795
288.40,6.70972
288.60,6.70215
288.80,6.67261
289.00,6.66390
289.20,6.65289
289.40,6.65109
289.60,6.62569
289.80,6.61965
290.00,6.62121
290.20,6.60613
290.40,6.58957
290.60,6.58852
290.80,6.58462
291.00,6.58055
291.20,6.58141
291.40,6.59331
291.60,6.59835
291.80,6.59528
292.00,6.59321
292.20,6.58904
292.40,6.58109
292.60,6.57363
292.80,6.57504
293.00,6.57272
293.20,6.56155
293.40,6.55718
293.60,6.54696
293.80,6.53895
294.00,6.52474
294.20,6.52517
294.40,6.52255
294.60,6.52215
294.80,6.52336
295.00,6.52566
295.20,6.53254
295.40,6.54257
295.60,6.54094
295.80,6.54441
296.00,6.54361
296.20,6.54227
296.40,6.52808
296.60,6.53948
296.80,6.53169
297.00,6.52940
297.20,6.52431
297.40,6.52294
297.60,6.50950
297.80,6.51633
298.00,6.51093
298.20,6.50796
298.40,6.52638
298.60,6.53537
298.80,6.52932
299.00,6.53204
299.20,6.53922
299.40,6.52877
299.60,6.53286
299.80,6.53842
300.00,6.53793
300.20,6.54710
300.40,6.54334
300.60,6.54098
300.80,6.54799
301.00,6.56782
301.20,6.55214
301.40,6.56761
301.60,6.57095
301.80,6.57147
302.00,6.56426
302.20,6.59000
302.40,6.58670
302.60,6.60463
302.80,6.61402
303.00,6.61130
303.20,6.60316
303.40,6.60170
303.60,6.59821
303.80,6.59680
304.00,6.59461
304.20,6.61570
304.40,6.63371
304.60,6.63519
304.80,6.61643
305.00,6.61570
305.20,6.60344
305.40,6.57340
305.60,6.56775
305.80,6.56719
306.00,6.55908
306.20,6.55059
306.40,6.56278
306.60,6.55035
306.80,6.56410
307.00,6.58301
307.20,6.58976
307.40,6.60044
307.60,6.61586
307.80,6.62272
308.00,6.63770
308.20,6.63599
308.40,6.63850
308.60,6.65044
308.80,6.64920
309.00,6.64985
309.20,6.65601
309.40,6.66776
309.60,6.66848
309.80,6.68327
310.00,6.67773
310.20,6.69354
310.40,6.70215
310.60,6.71976
310.80,6.72532
311.00,6.75065
311.20,6.77181
311.40,6.77092
311.60,6.76812
311.80,6.78446
312.00,6.78796
312.20,6.79529
312.40,6.81459
312.60,6.83746
312.80,6.86245
313.00,6.89483
313.20,6.90318
313.40,6.91590
313.60,6.92404
313.80,6.91903
314.00,6.92742
314.20,6.94618
314.40,6.97076
314.60,6.98789
314.80,7.00856
315.00,7.01634
315.20,7.02437
315.40,7.02070
315.60,7.04020
315.80,7.04940
316.00,7.06088
316.20,7.08976
316.40,7.12807
316.60,7.14538
316.80,7.16776
317.00,7.18235
317.20,7.18616
317.40,7.19812
317.60,7.21453
317.80,7.25855
318.00,7.30018
318.20,7.31517
318.40,7.33853
318.60,7.37727
318.80,7.38325
319.00,7.41048
319.20,7.45311
319.40,7.46872
319.60,7.48798
319.80,7.52060
320.00,7.52404
320.20,7.54209
320.40,7.56924
320.60,7.58344
320.80,7.60968
321.00,7.64836
321.20,7.68149
321.40,7.71663
321.60,7.75388
321.80,7.78069
322.00,7.80853
322.20,7.84321
322.40,7.86510
322.60,7.87830
322.80,7.89476
323.00,7.91082
323.20,7.91130
323.40,7.92150
323.60,7.95913
323.80,7.97111
324.00,7.98270
324.20,8.01195
324.40,8.03943
324.60,8.05281
324.80,8.10456
325.00,8.15543
325.20,8.18761
325.40,8.22684
325.60,8.25150
325.80,8.27108
326.00,8.29236
326.20,8.33890
326.40,8.38338
326.60,8.43796
326.80,8.48319
327.00,8.52171
327.20,8.54591
327.40,8.56639
327.60,8.59429
327.80,8.61438
328.00,8.63729
328.20,8.65792
328.40,8.70617
328.60,8.73610
328.80,8.78747
329.00,8.85181
329.20,8.91656
329.40,8.95546
329.60,9.00070
329.80,9.04832
330.00,9.06704
330.20,9.09897
330.40,9.12832
330.60,9.16567
330.80,9.19897
331.00,9.25155
331.20,9.29335
331.40,9.34108
331.60,9.39051
331.80,9.44155
332.00,9.48956
332.20,9.55250
332.40,9.61577
332.60,9.65842
332.80,9.69299
333.00,9.73954
333.20,9.76094
333.40,9.80736
333.60,9.85540
333.80,9.91133
334.00,9.97116
334.20,10.02683
334.40,10.07886
334.60,10.14713
334.80,10.20380
335.00,10.25237
335.20,10.31596
335.40,10.35385
335.60,10.38767
335.80,10.42511
336.00,10.48631
336.20,10.53484
336.40,10.60295
336.60,10.66328
336.80,10.72402
337.00,10.76305
337.20,10.82249
337.40,10.87260
337.60,10.93543
337.80,10.98346
338.00,11.03290
338.20,11.08178
338.40,11.14876
338.60,11.20577
338.80,11.28201
339.00,11.34276
339.20,11.40143
339.40,11.43522
339.60,11.48522
339.80,11.51793
340.00,11.57584
340.20,11.62486
340.40,11.68328
340.60,11.70530
340.80,11.75680
341.00,11.79198
341.20,11.84074
341.40,11.86813
341.60,11.93897
341.80,11.99858
342.00,12.04388
342.20,12.07492
342.40,12.11357
342.60,12.14024
342.80,12.16586
343.00,12.19502
343.20,12.23833
343.40,12.30121
343.60,12.33510
343.80,12.38411
344.00,12.43475
344.20,12.46553
344.40,12.48873
344.60,12.53093
344.80,12.55448
345.00,12.58625
345.20,12.62883
345.40,12.65372
345.60,12.69037
345.80,12.72258
346.00,12.75601
346.20,12.78239
346.40,12.82407
346.60,12.84268
346.80,12.88183
347.00,12.92801
347.20,12.97205
347.40,13.00949
347.60,13.06047
347.80,13.08367
348.00,13.09659
348.20,13.11762
348.40,13.15593
348.60,13.18863
348.80,13.23236
349.00,13.28672
349.20,13.33020
349.40,13.37042
349.60,13.41605
349.80,13.44663
350.00,13.47035
350.20,13.50447
350.40,13.53017
350.60,13.56965
350.80,13.61554
351.00,13.66527
351.20,13.69543
351.40,13.75020
351.60,13.78035
351.80,13.81919
352.00,13.84853
352.20,13.90396
352.40,13.94101
352.60,14.00014
352.80,14.03871
353.00,14.08879
353.20,14.13981
353.40,14.18580
353.60,14.22514
353.80,14.28760
354.00,14.33530
354.20,14.37349
354.40,14.42275
354.60,14.46193
354.80,14.49525
355.00,14.54719
355.20,14.59044
355.40,14.63007
355.60,14.67521
355.80,14.71462
356.00,14.75180
356.20,14.78440
356.40,14.82239
356.60,14.85521
356.80,14.89151
357.00,14.92051
357.20,14.96309
357.40,14.98295
357.60,15.01970
357.80,15.04503
358.00,15.06035
358.20,15.07455
358.40,15.09423
358.60,15.10579
358.80,15.12017
359.00,15.15323
359.20,15.17628
359.40,15.19237
359.60,15.19639
359.80,15.20671
360.00,15.19951
360.20,15.20863
360.40,15.20003
360.60,15.19974
360.80,15.20450
361.00,15.20718
361.20,15.21154
361.40,15.21296
361.60,15.20469
361.80,15.18853
362.00,15.18246
362.20,15.16295
362.40,15.17372
362.60,15.18953
362.80,15.19994
363.00,15.20239
363.20,15.19668
363.40,15.18922
363.60,15.16716
363.80,15.17914
364.00,15.20198
364.20,15.21397
364.40,15.21559
364.60,15.23912
364.80,15.22580
365.00,15.20954
365.20,15.21459
365.40,15.22847
365.60,15.23239
365.80,15.25777
366.00,15.27563
366.20,15.28732
366.40,15.29332
366.60,15.32553
366.80,15.33184
367.00,15.36500
367.20,15.38732
367.40,15.43401
367.60,15.45380
367.80,15.48233
368.00,15.49577
368.20,15.52351
368.40,15.53273
368.60,15.55226
368.80,15.57524
369.00,15.60840
369.20,15.64577
369.40,15.68044
369.60,15.71766
369.80,15.74335
370.00,15.75202
370.20,15.76286
370.40,15.79645
370.60,15.81706
370.80,15.86551
371.00,15.93545
371.20,15.99197
371.40,16.00898
371.60,16.03650
371.80,16.05655
372.00,16.07272
372.20,16.10470
372.40,16.15839
372.60,16.20010
372.80,16.24253
373.00,16.26023
373.20,16.29288
373.40,16.33338
373.60,16.35535
373.80,16.38867
374.00,16.43466
374.20,16.46472
374.40,16.49233
374.60,16.53944
374.80,16.56905
375.00,16.60795
375.20,16.64835
375.40,16.68564
375.60,16.71903
375.80,16.75471
376.00,16.77808
376.20,16.79650
376.40,16.81483
376.60,16.83849
376.80,16.86382
377.00,16.89000
377.20,16.92259
377.40,16.94206
377.60,16.97116
377.80,16.99433
378.00,17.00986
378.20,17.01867
378.40,17.03173
378.60,17.03444
378.80,17.04785
379.00,17.05045
379.20,17.06411
379.40,17.06953
379.60,17.07117
379.80,17.06294
380.00,17.06439
380.20,17.05523
380.40,17.04467
380.60,17.03735
380.80,17.02404
381.00,17.02640
381.20,17.01411
381.40,17.00765
381.60,17.00640
381.80,16.99503
382.00,16.96886
382.20,16.95759
382.40,16.94381
382.60,16.92036
382.80,16.90848
383.00,16.88927
383.20,16.87423
383.40,16.85588
383.60,16.83051
383.80,16.81210
384.00,16.79314
384.20,16.75174
384.40,16.72518
384.60,16.70436
384.80,16.67831
385.00,16.66044
385.20,16.65590
385.40,16.63464
385.60,16.61335
385.80,16.59875
386.00,16.57582
386.20,16.56451
386.40,16.55058
386.60,16.55012
386.80,16.54412
387.00,16.54765
387.20,16.52971
387.40,16.52633
387.60,16.52143
387.80,16.52247
388.00,16.51959
388.20,16.52379
388.40,16.53040
388.60,16.53855
388.80,16.53152
389.00,16.53687
389.20,16.54382
389.40,16.55016
389.60,16.54265
389.80,16.54816
390.00,16.54672
390.20,16.55533
390.40,16.57140
390.60,16.58912
390.80,16.59821
391.00,16.60907
391.20,16.62305
391.40,16.61559
391.60,16.62588
391.80,16.64852
392.00,16.67017
392.20,16.67614
392.40,16.69841
392.60,16.71333
392.80,16.73629
393.00,16.74976
393.20,16.78100
393.40,16.80838
393.60,16.82624
393.80,16.83242
394.00,16.85602
394.20,16.85887
394.40,16.87186
394.60,16.88641
394.80,16.90148
395.00,16.92951
395.20,16.96654
395.40,16.99172
395.60,17.03779
395.80,17.07146
396.00,17.08856
396.20,17.11541
396.40,17.13604
396.60,17.15949
396.80,17.17755
397.00,17.20574
397.20,17.23188
397.40,17.25821
397.60,17.28247
397.80,17.32322
398.00,17.35668
398.20,17.38611
398.40,17.43403
398.60,17.45715
398.80,17.49650
399.00,17.52645
399.20,17.56164
399.40,17.59932
399.60,17.65103
399.80,17.69531
400.00,17.73773
400.20,17.76192
400.40,17.78574
400.60,17.81723
400.80,17.84526
401.00,17.87781
401.20,17.93011
401.40,17.96299
401.60,17.98476
401.80,18.00554
402.00,18.02992
402.20,18.04593
402.40,18.08004
402.60,18.11463
402.80,18.13750
403.00,18.15015
403.20,18.17525
403.40,18.17600
403.60,18.18537
403.80,18.19336
404.00,18.20186
404.20,18.20077
404.40,18.22133
404.60,18.22565
404.80,18.22124
405.00,18.22939
405.20,18.23156
405.40,18.22429
405.60,18.21007
405.80,18.21009
406.00,18.19310
406.20,18.18110
406.40,18.16482
406.60,18.15522
406.80,18.14331
407.00,18.13290
407.20,18.11129
407.40,18.08797
407.60,18.05468
407.80,18.03210
408.00,18.00203
408.20,17.96937
408.40,17.94233
408.60,17.91936
408.80,17.88732
409.00,17.87514
409.20,17.84874
409.40,17.82628
409.60,17.80935
409.80,17.78192
410.00,17.74696
410.20,17.72975
410.40,17.70361
410.60,17.68269
410.80,17.67314
411.00,17.66633
411.20,17.65395
411.40,17.65491
411.60,17.65125
411.80,17.64891
412.00,17.65794
412.20,17.67641
412.40,17.68893
412.60,17.70465
412.80,17.73503
413.00,17.75766
413.20,17.78135
413.40,17.82060
413.60,17.87663
413.80,17.92956
414.00,17.98385
414.20,18.05530
414.40,18.11635
414.60,18.18606
414.80,18.25320
415.00,18.33450
415.20,18.42384
415.40,18.52793
415.60,18.62207
415.80,18.73567
416.00,18.84036
416.20,18.93933
416.40,19.04261
416.60,19.16963
416.80,19.28535
417.00,19.42834
417.20,19.57725
417.40,19.72970
417.60,19.87127
417.80,20.02744
418.00,20.17004
418.20,20.32225
418.40,20.47759
418.60,20.63768
418.80,20.80026
419.00,20.96118
419.20,21.12330
419.40,21.29100
419.60,21.45873
419.80,21.61692
420.00,21.78520
420.20,21.95560
420.40,22.12080
420.60,22.29382
420.80,22.45977
421.00,22.63632
421.20,22.80559
421.40,22.97924
421.60,23.13800
421.80,23.31491
422.00,23.48513
422.20,23.64724
422.40,23.80270
422.60,23.96908
422.80,24.12602
423.00,24.27117
423.20,24.42688
423.40,24.57023
423.60,24.71969
423.80,24.86509
424.00,25.01242
424.20,25.15620
424.40,25.29643
424.60,25.42869
424.80,25.55154
425.00,25.68272
425.20,25.81964
425.40,25.96490
425.60,26.09147
425.80,26.22799
426.00,26.34800
426.20,26.44769
426.40,26.54001
426.60,26.64491
426.80,26.75053
427.00,26.85736
427.20,26.96932
427.40,27.07132
427.60,27.17333
427.80,27.26597
428.00,27.34695
428.20,27.43325
428.40,27.52692
428.60,27.61502
428.80,27.70702
429.00,27.79967
429.20,27.89207
429.40,27.97827
429.60,28.05465
429.80,28.13237
430.00,28.20933
430.20,28.26382
430.40,28.33024
430.60,28.39996
430.80,28.45597
431.00,28.51728
431.20,28.59773
431.40,28.66625
431.60,28.72423
431.80,28.79307
432.00,28.85773
432.20,28.91929
432.40,28.98243
432.60,29.05194
432.80,29.10707
433.00,29.15901
433.20,29.19738
433.40,29.25107
433.60,29.28924
433.80,29.34057
434.00,29.38847
434.20,29.43736
434.40,29.47881
434.60,29.52982
434.80,29.57029
435.00,29.61039
435.20,29.65598
435.40,29.69210
435.60,29.73075
435.80,29.76131
436.00,29.80983
436.20,29.85380
436.40,29.89669
436.60,29.94112
436.80,29.99004
437.00,30.02924
437.20,30.06025
437.40,30.10052
437.60,30.13538
437.80,30.16442
438.00,30.19341
438.20,30.24062
438.40,30.26236
438.60,30.28823
438.80,30.32699
439.00,30.37001
439.20,30.39295
439.40,30.43911
439.60,30.48409
439.80,30.52897
440.00,30.55742
440.20,30.59330
440.40,30.61360
440.60,30.63547
440.80,30.65333
441.00,30.67923
441.20,30.69700
441.40,30.72667
441.60,30.75101
441.80,30.77577
442.00,30.79294
442.20,30.82266
442.40,30.84372
442.60,30.88144
442.80,30.90385
443.00,30.93578
443.20,30.97445
443.40,31.00751
443.60,31.02529
443.80,31.04748
444.00,31.06044
444.20,31.06799
444.40,31.09150
444.60,31.11082
444.80,31.12776
445.00,31.16039
445.20,31.18037
445.40,31.19548
445.60,31.21023
445.80,31.23912
446.00,31.25192
446.20,31.26981
446.40,31.28659
446.60,31.31289
446.80,31.32896
447.00,31.34582
447.20,31.36222
447.40,31.38353
447.60,31.39948
447.80,31.41431
448.00,31.43229
448.20,31.45822
448.40,31.48465
448.60,31.49370
448.80,31.51309
449.00,31.54866
449.20,31.56941
449.40,31.57438
449.60,31.59863
449.80,31.61699
450.00,31.61107
450.20,31.62475
450.40,31.65233
450.60,31.67503
450.80,31.69920
451.00,31.71334
451.20,31.72663
451.40,31.73545
451.60,31.73960
451.80,31.74719
452.00,31.76581
452.20,31.77247
452.40,31.77901
452.60,31.80286
452.80,31.81188
453.00,31.83499
453.20,31.85291
453.40,31.87549
453.60,31.88144
453.80,31.90081
454.00,31.91949
454.20,31.94269
454.40,31.95275
454.60,31.96432
454.80,31.98961
455.00,32.00053
455.20,32.01980
455.40,32.03160
455.60,32.05113
455.80,32.06286
456.00,32.07342
456.20,32.08338
456.40,32.10673
456.60,32.11527
456.80,32.12214
457.00,32.14852
457.20,32.15945
457.40,32.16989
457.60,32.19311
457.80,32.20719
458.00,32.20894
458.20,32.21896
458.40,32.23264
458.60,32.24834
458.80,32.26243
459.00,32.27546
459.20,32.29913
459.40,32.30391
459.60,32.31983
459.80,32.32712
460.00,32.33927
460.20,32.34346
460.40,32.36916
460.60,32.37826
460.80,32.39507
461.00,32.39712
461.20,32.41379
461.40,32.40159
461.60,32.40641
461.80,32.41976
462.00,32.43425
462.20,32.43189
462.40,32.45782
462.60,32.46169
462.80,32.45424
463.00,32.46766
463.20,32.47977
463.40,32.48524
463.60,32.50083
463.80,32.52834
464.00,32.54716
464.20,32.56554
464.40,32.57032
464.60,32.57596
464.80,32.57210
465.00,32.56452
465.20,32.55623
465.40,32.56559
465.60,32.57407
465.80,32.59158
466.00,32.60118
466.20,32.60261
466.40,32.61120
466.60,32.61419
466.80,32.62167
467.00,32.62581
467.20,32.65389
467.40,32.66999
467.60,32.68679
467.80,32.67028
468.00,32.67802
468.20,32.66155
468.40,32.65900
468.60,32.64239
468.80,32.65646
469.00,32.66070
469.20,32.67765
469.40,32.67359
469.60,32.69326
469.80,32.70383
470.00,32.69961
470.20,32.70051
470.40,32.70655
470.60,32.70058
470.80,32.69364
471.00,32.70504
471.20,32.70038
471.40,32.70086
471.60,32.70964
471.80,32.71812
472.00,32.71561
472.20,32.72685
472.40,32.72279
472.60,32.70440
472.80,32.70031
473.00,32.70291
473.20,32.69037
473.40,32.68183
473.60,32.68866
473.80,32.69125
474.00,32.68322
474.20,32.67222
474.40,32.68290
474.60,32.67789
474.80,32.66370
475.00,32.66255
475.20,32.66501
475.40,32.65939
475.60,32.66339
475.80,32.66477
476.00,32.65580
476.20,32.65049
476.40,32.64295
476.60,32.63013
476.80,32.60691
477.00,32.59636
477.20,32.59017
477.40,32.58196
477.60,32.58311
477.80,32.59388
478.00,32.59708
478.20,32.60059
478.40,32.60511
478.60,32.58739
478.80,32.57460
479.00,32.56824
479.20,32.56212
479.40,32.54594
479.60,32.54768
479.80,32.54491
480.00,32.53449
480.20,32.51822
480.40,32.51051
480.60,32.50068
480.80,32.48996
481.00,32.48926
481.20,32.48177
481.40,32.47881
481.60,32.47117
481.80,32.46063
482.00,32.44892
482.20,32.44246
482.40,32.41697
482.60,32.40789
482.80,32.39844
483.00,32.37360
483.20,32.37007
483.40,32.36850
483.60,32.35708
483.80,32.35796
484.00,32.36486
484.20,32.35172
484.40,32.35082
484.60,32.33652
484.80,32.32256
485.00,32.30621
485.20,32.28627
485.40,32.26614
485.60,32.25931
485.80,32.24436
486.00,32.23101
486.20,32.22823
486.40,32.21700
486.60,32.20764
486.80,32.20445
487.00,32.19399
487.20,32.18243
487.40,32.17917
487.60,32.16054
487.80,32.13544
488.00,32.12518
488.20,32.10880
488.40,32.10020
488.60,32.10026
488.80,32.10109
489.00,32.10125
489.20,32.09870
489.40,32.08537
489.60,32.07140
489.80,32.06091
490.00,32.04726
490.20,32.04476
490.40,32.03699
490.60,32.02875
490.80,32.01382
491.00,32.00212
491.20,31.98339
491.40,31.96907
491.60,31.95282
491.80,31.94585
492.00,31.93324
492.20,31.91950
492.40,31.90655
492.60,31.90274
492.80,31.89679
493.00,31.89062
493.20,31.87904
493.40,31.86957
493.60,31.85300
493.80,31.83918
494.00,31.82251
494.20,31.80773
494.40,31.79984
494.60,31.78128
494.80,31.77230
495.00,31.76832
495.20,31.75917
495.40,31.74314
495.60,31.75214
495.80,31.74249
496.00,31.72116
496.20,31.71779
496.40,31.70843
496.60,31.69057
496.80,31.67086
497.00,31.65640
497.20,31.64161
497.40,31.62603
497.60,31.61505
497.80,31.60094
498.00,31.58527
498.20,31.56420
498.40,31.55313
498.60,31.53189
498.80,31.51940
499.00,31.50941
499.20,31.50423
499.40,31.49875
499.60,31.47857
499.80,31.46248
500.00,31.45058
500.20,31.42768
500.40,31.40458
500.60,31.39555
500.80,31.37519
501.00,31.35529
501.20,31.34528
501.40,31.32958
501.60,31.31724
501.80,31.31006
502.00,31.29089
502.20,31.26498
502.40,31.24500
502.60,31.22387
502.80,31.19088
503.00,31.17763
503.20,31.16635
503.40,31.14887
503.60,31.12548
503.80,31.11157
504.00,31.09382
504.20,31.07432
504.40,31.06143
504.60,31.05561
504.80,31.03881
505.00,31.02326
505.20,31.00852
505.40,30.98356
505.60,30.95695
505.80,30.94482
506.00,30.91885
506.20,30.89069
506.40,30.87697
506.60,30.86802
506.80,30.85652
507.00,30.84437
507.20,30.82840
507.40,30.81100
507.60,30.77726
507.80,30.75368
508.00,30.72821
508.20,30.70748
508.40,30.68092
508.60,30.66757
508.80,30.64005
509.00,30.61901
509.20,30.60223
509.40,30.58832
509.60,30.56867
509.80,30.55192
510.00,30.52940
510.20,30.51569
510.40,30.48931
510.60,30.47210
510.80,30.45412
511.00,30.44573
511.20,30.42970
511.40,30.41265
511.60,30.38812
511.80,30.36308
512.00,30.34455
512.20,30.31548
512.40,30.29351
512.60,30.27165
512.80,30.25280
513.00,30.22532
513.20,30.21511
513.40,30.20081
513.60,30.17513
513.80,30.15639
514.00,30.13605
514.20,30.10948
514.40,30.08269
514.60,30.07315
514.80,30.05151
515.00,30.02011
515.20,29.99820
515.40,29.97895
515.60,29.95082
515.80,29.93560
516.00,29.93686
516.20,29.90864
516.40,29.88053
516.60,29.85431
516.80,29.83647
517.00,29.81284
517.20,29.79042
517.40,29.77076
517.60,29.75095
517.80,29.72434
518.00,29.69916
518.20,29.69057
518.40,29.67389
518.60,29.66040
518.80,29.64670
519.00,29.62346
519.20,29.60821
519.40,29.59072
519.60,29.58257
519.80,29.54708
520.00,29.52890
520.20,29.50196
520.40,29.49004
520.60,29.46212
520.80,29.44828
521.00,29.43200
521.20,29.42034
521.40,29.38906
521.60,29.36292
521.80,29.34845
522.00,29.33405
522.20,29.30486
522.40,29.28986
522.60,29.27324
522.80,29.25627
523.00,29.23782
523.20,29.22076
523.40,29.20105
523.60,29.18063
523.80,29.15665
524.00,29.12917
524.20,29.11096
524.40,29.09999
524.60,29.08194
524.80,29.06430
525.00,29.04375
525.20,29.03163
525.40,29.00036
525.60,28.98787
525.80,28.97141
526.00,28.95308
526.20,28.92722
526.40,28.90934
526.60,28.88586
526.80,28.86490
527.00,28.83971
527.20,28.81743
527.40,28.80059
527.60,28.78639
527.80,28.76647
528.00,28.74911
528.20,28.70942
528.40,28.68721
528.60,28.66295
528.80,28.64902
529.00,28.63477
529.20,28.63126
529.40,28.61245
529.60,28.58230
529.80,28.55148
530.00,28.53679
530.20,28.51406
530.40,28.48726
530.60,28.47122
530.80,28.45058
531.00,28.42306
531.20,28.41156
531.40,28.40277
531.60,28.38909
531.80,28.37020
532.00,28.35421
532.20,28.33531
532.40,28.31090
532.60,28.29598
532.80,28.27285
533.00,28.23816
533.20,28.20854
533.40,28.18992
533.60,28.15987
533.80,28.13974
534.00,28.12921
534.20,28.10889
534.40,28.08993
534.60,28.06706
534.80,28.05847
535.00,28.03816
535.20,28.02094
535.40,27.99946
535.60,27.97770
535.80,27.95059
536.00,27.93302
536.20,27.91634
536.40,27.89718
536.60,27.88805
536.80,27.87317
537.00,27.84524
537.20,27.83137
537.40,27.80890
537.60,27.78881
537.80,27.76685
538.00,27.76403
538.20,27.74245
538.40,27.73033
538.60,27.70987
538.80,27.69713
539.00,27.66679
539.20,27.64244
539.40,27.62105
539.60,27.60062
539.80,27.56601
540.00,27.54850
540.20,27.52798
540.40,27.50870
540.60,27.49363
540.80,27.48346
541.00,27.46610
541.20,27.45467
541.40,27.43114
541.60,27.40946
541.80,27.40325
542.00,27.38999
542.20,27.36840
542.40,27.35865
542.60,27.33532
542.80,27.30755
543.00,27.28084
543.20,27.25886
543.40,27.23444
543.60,27.21618
543.80,27.18759
544.00,27.17123
544.20,27.15411
544.40,27.13454
544.60,27.12539
544.80,27.10636
545.00,27.08100
545.20,27.05961
545.40,27.03212
545.60,27.00374
545.80,26.99217
546.00,26.97640
546.20,26.97076
546.40,26.95774
546.60,26.94616
546.80,26.92656
547.00,26.90465
547.20,26.87899
547.40,26.86082
547.60,26.83735
547.80,26.82378
548.00,26.80500
548.20,26.78432
548.40,26.76517
548.60,26.75369
548.80,26.73760
549.00,26.72800
549.20,26.71770
549.40,26.70731
549.60,26.69242
549.80,26.67252
550.00,26.65577
550.20,26.63600
550.40,26.61368
550.60,26.59169
550.80,26.57206
551.00,26.55315
551.20,26.53205
551.40,26.52160
551.60,26.50141
551.80,26.48413
552.00,26.46109
552.20,26.44751
552.40,26.42451
552.60,26.41021
552.80,26.38833
553.00,26.38325
553.20,26.35826
553.40,26.34611
553.60,26.32582
553.80,26.31656
554.00,26.30197
554.20,26.28696
554.40,26.27240
554.60,26.25834
554.80,26.23453
555.00,26.21822
555.20,26.21052
555.40,26.18544
555.60,26.17241
555.80,26.16752
556.00,26.14656
556.20,26.12259
556.40,26.11247
556.60,26.10299
556.80,26.09404
557.00,26.08655
557.20,26.07786
557.40,26.07477
557.60,26.05550
557.80,26.03606
558.00,26.01549
558.20,26.00568
558.40,25.98681
558.60,25.97883
558.80,25.96591
559.00,25.95228
559.20,25.94387
559.40,25.94171
559.60,25.93058
559.80,25.92495
560.00,25.91529
560.20,25.89506
560.40,25.87696
560.60,25.85744
560.80,25.84646
561.00,25.84238
561.20,25.83589
561.40,25.82964
561.60,25.82435
561.80,25.80384
562.00,25.79382
562.20,25.78480
562.40,25.77018
562.60,25.76249
562.80,25.75888
563.00,25.74893
563.20,25.73405
563.40,25.73152
563.60,25.72138
563.80,25.71441
564.00,25.70237
564.20,25.70519
564.40,25.69483
564.60,25.68112
564.80,25.66972
565.00,25.66030
565.20,25.63581
565.40,25.62405
565.60,25.62681
565.80,25.61008
566.00,25.60284
566.20,25.60588
566.40,25.59018
566.60,25.57235
566.80,25.57653
567.00,25.56888
567.20,25.55701
567.40,25.54954
567.60,25.54525
567.80,25.53050
568.00,25.51912
568.20,25.50949
568.40,25.50532
568.60,25.49642
568.80,25.49817
569.00,25.48994
569.20,25.49043
569.40,25.48393
569.60,25.47175
569.80,25.45154
570.00,25.44863
570.20,25.44414
570.40,25.43662
570.60,25.44047
570.80,25.44627
571.00,25.44394
571.20,25.42924
571.40,25.41585
571.60,25.41140
571.80,25.39450
572.00,25.38007
572.20,25.37849
572.40,25.37465
572.60,25.36252
572.80,25.36419
573.00,25.36709
573.20,25.36019
573.40,25.35986
573.60,25.36226
573.80,25.35753
574.00,25.35119
574.20,25.33970
574.40,25.32709
574.60,25.31919
574.80,25.31705
575.00,25.30481
575.20,25.31374
575.40,25.31571
575.60,25.31352
575.80,25.30653
576.00,25.30932
576.20,25.29809
576.40,25.28844
576.60,25.27773
576.80,25.27829
577.00,25.27365
577.20,25.27239
577.40,25.27619
577.60,25.27685
577.80,25.26709
578.00,25.26920
578.20,25.26723
578.40,25.26870
578.60,25.26664
578.80,25.26438
579.00,25.25710
579.20,25.25724
579.40,25.25626
579.60,25.25052
579.80,25.25676
580.00,25.25688
580.20,25.25621
580.40,25.24339
580.60,25.23881
580.80,25.22820
581.00,25.22837
581.20,25.21933
581.40,25.23279
581.60,25.23891
581.80,25.24296
582.00,25.24082
582.20,25.23985
582.40,25.22132
582.60,25.22968
582.80,25.22902
583.00,25.23152
583.20,25.23929
583.40,25.25464
583.60,25.24077
583.80,25.23867
584.00,25.24045
584.20,25.23235
584.40,25.23236
584.60,25.23391
584.80,25.23707
585.00,25.23568
585.20,25.24279
585.40,25.24644
585.60,25.25319
585.80,25.24883
586.00,25.25058
586.20,25.24966
586.40,25.25168
586.60,25.25522
586.80,25.26665
587.00,25.26574
587.20,25.26552
587.40,25.26573
587.60,25.26737
587.80,25.26506
588.00,25.27214
588.20,25.27852
588.40,25.27797
588.60,25.27008
588.80,25.28148
589.00,25.27744
589.20,25.28199
589.40,25.28130
589.60,25.29252
589.80,25.28924
590.00,25.29780
590.20,25.30546
590.40,25.31886
590.60,25.32085
590.80,25.31877
591.00,25.31714
591.20,25.31449
591.40,25.31170
591.60,25.31861
591.80,25.32385
592.00,25.32904
592.20,25.33869
592.40,25.34257
592.60,25.34902
592.80,25.35621
593.00,25.36356
593.20,25.36887
593.40,25.37874
593.60,25.37138
593.80,25.37760
594.00,25.38182
594.20,25.38127
594.40,25.38469
594.60,25.39365
594.80,25.38999
595.00,25.39495
595.20,25.39542
595.40,25.40273
595.60,25.40872
595.80,25.42199
596.00,25.43041
596.20,25.43934
596.40,25.43994
596.60,25.44143
596.80,25.44091
597.00,25.44265
597.20,25.44465
597.40,25.44986
597.60,25.45758
597.80,25.47088
598.00,25.47782
598.20,25.48880
598.40,25.49823
598.60,25.50484
598.80,25.51401
599.00,25.51690
599.20,25.52708
599.40,25.53009
599.60,25.53944
599.80,25.53390
600.00,25.53738
600.20,25.54196
600.40,25.54434
600.60,25.54912
600.80,25.56349
601.00,25.57665
601.20,25.57694
601.40,25.58783
601.60,25.59600
601.80,25.59975
602.00,25.60926
602.20,25.61667
602.40,25.61603
602.60,25.63172
602.80,25.63337
603.00,25.63733
603.20,25.63457
603.40,25.64549
603.60,25.64267
603.80,25.65172
604.00,25.65297
604.20,25.66849
604.40,25.67664
604.60,25.68521
604.80,25.69219
605.00,25.69743
605.20,25.70839
605.40,25.71652
605.60,25.72587
605.80,25.74127
606.00,25.75402
606.20,25.76447
606.40,25.76962
606.60,25.77990
606.80,25.78365
607.00,25.78939
607.20,25.79916
607.40,25.82059
607.60,25.83134
607.80,25.83858
608.00,25.86055
608.20,25.86716
608.40,25.86581
608.60,25.87796
608.80,25.89505
609.00,25.90383
609.20,25.91965
609.40,25.93898
609.60,25.94265
609.80,25.93777
610.00,25.94245
610.20,25.94182
610.40,25.94552
610.60,25.95277
610.80,25.97266
611.00,25.98524
611.20,26.00128
611.40,26.01284
611.60,26.03307
611.80,26.04866
612.00,26.05500
612.20,26.06858
612.40,26.08700
612.60,26.09268
612.80,26.10139
613.00,26.12227
613.20,26.13555
613.40,26.14822
613.60,26.17026
613.80,26.18686
614.00,26.20207
614.20,26.21992
614.40,26.24180
614.60,26.25436
614.80,26.26823
615.00,26.27247
615.20,26.28163
615.40,26.29252
615.60,26.31075
615.80,26.32611
616.00,26.34594
616.20,26.35816
616.40,26.36865
616.60,26.37757
616.80,26.39062
617.00,26.41120
617.20,26.43127
617.40,26.44107
617.60,26.46633
617.80,26.48779
618.00,26.50594
618.20,26.52583
618.40,26.54880
618.60,26.55377
618.80,26.57255
619.00,26.58902
619.20,26.60156
619.40,26.63558
619.60,26.65715
619.80,26.67509
620.00,26.69645
620.20,26.71659
620.40,26.71968
620.60,26.74887
620.80,26.77629
621.00,26.79331
621.20,26.82446
621.40,26.84515
621.60,26.86461
621.80,26.88194
622.00,26.90174
622.20,26.91974
622.40,26.94199
622.60,26.96254
622.80,26.98159
623.00,27.00548
623.20,27.02465
623.40,27.04130
623.60,27.05622
623.80,27.07382
624.00,27.09946
624.20,27.12284
624.40,27.15430
624.60,27.18389
624.80,27.21666
625.00,27.23570
625.20,27.26550
625.40,27.29415
625.60,27.31114
625.80,27.34374
626.00,27.36969
626.20,27.38757
626.40,27.40766
626.60,27.44191
626.80,27.45134
627.00,27.47749
627.20,27.50725
627.40,27.53527
627.60,27.55863
627.80,27.59822
628.00,27.62277
628.20,27.65152
628.40,27.67319
628.60,27.70578
628.80,27.72642
629.00,27.76242
629.20,27.78901
629.40,27.82371
629.60,27.84716
629.80,27.88586
630.00,27.92082
630.20,27.94903
630.40,27.97750
630.60,28.01296
630.80,28.03254
631.00,28.05392
631.20,28.09972
631.40,28.13092
631.60,28.16800
631.80,28.21177
632.00,28.25905
632.20,28.28522
632.40,28.32740
632.60,28.35826
632.80,28.38923
633.00,28.41060
633.20,28.44792
633.40,28.48666
633.60,28.52839
633.80,28.56282
634.00,28.60186
634.20,28.64400
634.40,28.67997
634.60,28.70146
634.80,28.74166
635.00,28.78161
635.20,28.82538
635.40,28.85880
635.60,28.91099
635.80,28.95635
636.00,28.99331
636.20,29.01847
636.40,29.06705
636.60,29.10915
636.80,29.13735
637.00,29.20478
637.20,29.25639
637.40,29.30201
637.60,29.34956
637.80,29.40060
638.00,29.42179
638.20,29.45963
638.40,29.50710
638.60,29.54138
638.80,29.59267
639.00,29.63631
639.20,29.67795
639.40,29.72079
639.60,29.76419
639.80,29.80027
640.00,29.84356
640.20,29.89670
640.40,29.92416
640.60,29.97394
640.80,30.02049
641.00,30.07774
641.20,30.12087
641.40,30.18284
641.60,30.23379
641.80,30.29284
642.00,30.33648
642.20,30.39403
642.40,30.44018
642.60,30.49504
642.80,30.54421
643.00,30.60246
643.20,30.64616
643.40,30.69262
643.60,30.74585
643.80,30.78704
644.00,30.84610
644.20,30.90344
644.40,30.96209
644.60,30.99472
644.80,31.04363
645.00,31.07280
645.20,31.11163
645.40,31.15930
645.60,31.21735
645.80,31.26701
646.00,31.33136
646.20,31.39632
646.40,31.46318
646.60,31.53161
646.80,31.60350
647.00,31.65386
647.20,31.70531
647.40,31.74644
647.60,31.78787
647.80,31.83364
648.00,31.89423
648.20,31.95892
648.40,32.00571
648.60,32.07104
648.80,32.14748
649.00,32.18957
649.20,32.23330
649.40,32.30805
649.60,32.35071
649.80,32.38411
650.00,32.45686
650.20,32.51609
650.40,32.56887
650.60,32.64033
650.80,32.70928
651.00,32.77311
651.20,32.82951
651.40,32.88190
651.60,32.94865
651.80,33.00446
652.00,33.06788
652.20,33.13044
652.40,33.19808
652.60,33.24632
652.80,33.31025
653.00,33.37590
653.20,33.45085
653.40,33.51056
653.60,33.57850
653.80,33.63088
654.00,33.67172
654.20,33.73169
654.40,33.79714
654.60,33.85275
654.80,33.90668
655.00,33.97769
655.20,34.03102
655.40,34.08482
655.60,34.14544
655.80,34.23675
656.00,34.28743
656.20,34.35733
656.40,34.43223
656.60,34.50361
656.80,34.56308
657.00,34.64303
657.20,34.71045
657.40,34.78130
657.60,34.84453
657.80,34.91216
658.00,34.97683
658.20,35.03854
658.40,35.10729
658.60,35.17171
658.80,35.24125
659.00,35.31204
659.20,35.37557
659.40,35.45943
659.60,35.55472
659.80,35.63980
660.00,35.72891
660.20,35.81612
660.40,35.89976
660.60,35.97170
660.80,36.02813
661.00,36.08637
661.20,36.16060
661.40,36.23867
661.60,36.32716
661.80,36.41300
662.00,36.51041
662.20,36.60867
662.40,36.68043
662.60,36.74589
662.80,36.83524
663.00,36.91666
663.20,36.98840
663.40,37.06585
663.60,37.18049
663.80,37.27328
664.00,37.35519
664.20,37.46142
664.40,37.57108
664.60,37.64850
664.80,37.74419
665.00,37.83940
665.20,37.91985
665.40,37.99499
665.60,38.08550
665.80,38.18627
666.00,38.29271
666.20,38.39630
666.40,38.48663
666.60,38.59017
666.80,38.68397
667.00,38.77193
667.20,38.86772
667.40,38.97412
667.60,39.08633
667.80,39.18066
668.00,39.28332
668.20,39.38166
668.40,39.48566
668.60,39.56628
668.80,39.66756
669.00,39.77627
669.20,39.89119
669.40,39.99860
669.60,40.09348
669.80,40.20821
670.00,40.29231
670.20,40.40141
670.40,40.50886
670.60,40.65296
670.80,40.76742
671.00,40.90289
671.20,41.01509
671.40,41.13901
671.60,41.22255
671.80,41.32196
672.00,41.44627
672.20,41.55802
672.40,41.66242
672.60,41.79569
672.80,41.92339
673.00,42.03426
673.20,42.14217
673.40,42.27318
673.60,42.39828
673.80,42.51336
674.00,42.64046
674.20,42.77240
674.40,42.89158
674.60,43.01380
674.80,43.14187
675.00,43.26208
675.20,43.40084
675.40,43.53549
675.60,43.66911
675.80,43.82314
676.00,43.96736
676.20,44.10772
676.40,44.22782
676.60,44.35499
676.80,44.47372
677.00,44.60711
677.20,44.73620
677.40,44.89941
677.60,45.04814
677.80,45.20670
678.00,45.34760
678.20,45.47920
678.40,45.62152
678.60,45.75584
678.80,45.90002
679.00,46.04634
679.20,46.19663
679.40,46.33785
679.60,46.50508
679.80,46.64028
680.00,46.81444
680.20,46.97511
680.40,47.09788
680.60,47.24413
680.80,47.41411
681.00,47.54827
681.20,47.67861
681.40,47.86822
681.60,48.00961
681.80,48.13094
682.00,48.29720
682.20,48.46799
682.40,48.63020
682.60,48.80643
682.80,48.99870
683.00,49.15836
683.20,49.34705
683.40,49.51317
683.60,49.67186
683.80,49.82801
684.00,49.99880
684.20,50.15179
684.40,50.28569
684.60,50.45745
684.80,50.59200
685.00,50.76287
685.20,50.90583
685.40,51.07366
685.60,51.21051
685.80,51.41791
686.00,51.57518
686.20,51.75281
686.40,51.94063
686.60,52.12591
686.80,52.27001
687.00,52.41221
687.20,52.57746
687.40,52.73277
687.60,52.91934
687.80,53.09809
688.00,53.26142
688.20,53.43932
688.40,53.62484
688.60,53.76393
688.80,53.88038
689.00,54.06410
689.20,54.19574
689.40,54.33637
689.60,54.52299
689.80,54.74001
690.00,54.92804
690.20,55.09696
690.40,55.26774
690.60,55.42876
690.80,55.58628
691.00,55.73156
691.20,55.94490
691.40,56.09194
691.60,56.23444
691.80,56.38043
692.00,56.50383
692.20,56.67696
692.40,56.86930
692.60,57.04210
692.80,57.20944
693.00,57.42234
693.20,57.55949
693.40,57.72547
693.60,57.87744
693.80,58.05075
694.00,58.19488
694.20,58.33037
694.40,58.48496
694.60,58.66711
694.80,58.80858
695.00,58.95604
695.20,59.13191
695.40,59.24196
695.60,59.36652
695.80,59.51888
696.00,59.65733
696.20,59.81280
696.40,60.00240
696.60,60.16995
696.80,60.35421
697.00,60.52524
697.20,60.65221
697.40,60.81734
697.60,60.96460
697.80,61.06864
698.00,61.21736
698.20,61.35576
698.40,61.48711
698.60,61.59029
698.80,61.75365
699.00,61.87016
699.20,62.03614
699.40,62.16566
699.60,62.35605
699.80,62.50566
700.00,62.67220
700.20,62.83450
700.40,62.95893
700.60,63.05772
700.80,63.22697
701.00,63.38052
701.20,63.47733
701.40,63.66445
701.60,63.83270
701.80,63.94072
702.00,64.04643
702.20,64.19580
702.40,64.32417
702.60,64.46841
702.80,64.61119
703.00,64.76405
703.20,64.90138
703.40,65.05498
703.60,65.20826
703.80,65.38816
704.00,65.52854
704.20,65.66343
704.40,65.76378
704.60,65.88488
704.80,65.98284
705.00,66.11525
705.20,66.26145
705.40,66.43620
705.60,66.57363
705.80,66.67966
706.00,66.81668
706.20,66.94963
706.40,67.03462
706.60,67.17427
706.80,67.32741
707.00,67.46418
707.20,67.58589
707.40,67.71918
707.60,67.78151
707.80,67.90458
708.00,68.01959
708.20,68.11426
708.40,68.23339
708.60,68.36605
708.80,68.44386
709.00,68.56305
709.20,68.70536
709.40,68.79460
709.60,68.89198
709.80,68.99670
710.00,69.06761
710.20,69.15558
710.40,69.27330
710.60,69.39555
710.80,69.56959
711.00,69.67992
711.20,69.75435
711.40,69.84041
711.60,69.99992
711.80,70.09742
712.00,70.19503
712.20,70.31746
712.40,70.42500
712.60,70.48048
712.80,70.52790
713.00,70.60811
713.20,70.70526
713.40,70.84639
713.60,70.98238
713.80,71.09080
714.00,71.22163
714.20,71.36486
714.40,71.44999
714.60,71.54598
714.80,71.63754
715.00,71.74333
715.20,71.81448
715.40,71.85488
715.60,71.91701
715.80,72.01642
716.00,72.10078
716.20,72.15735
716.40,72.30160
716.60,72.39311
716.80,72.47835
717.00,72.60314
717.20,72.73088
717.40,72.80341
717.60,72.89857
717.80,72.96886
718.00,72.98821
718.20,73.05195
718.40,73.13335
718.60,73.21181
718.80,73.32170
719.00,73.43471
719.20,73.51606
719.40,73.57835
719.60,73.68338
719.80,73.74474
720.00,73.82605
720.20,73.93904
720.40,74.06581
720.60,74.14330
720.80,74.22952
721.00,74.30341
721.20,74.34297
721.40,74.38033
721.60,74.43305
721.80,74.50302
722.00,74.59419
722.20,74.69089
722.40,74.77965
722.60,74.82860
722.80,74.91825
723.00,74.98998
723.20,75.04916
723.40,75.11442
723.60,75.20292
723.80,75.25378
724.00,75.25829
724.20,75.32964
724.40,75.40886
724.60,75.49798
724.80,75.63457
725.00,75.77090
725.20,75.81333
725.40,75.86037
725.60,75.89751
725.80,75.91121
726.00,75.97367
726.20,76.06214
726.40,76.14999
726.60,76.22953
726.80,76.33289
727.00,76.39177
727.20,76.39098
727.40,76.46261
727.60,76.49918
727.80,76.50343
728.00,76.49199
728.20,76.65465
728.40,76.68221
728.60,76.81072
728.80,76.89943
729.00,77.00388
729.20,77.02370
729.40,77.09549
729.60,77.11095
729.80,77.14052
730.00,77.21179
730.20,77.25603
730.40,77.31071
730.60,77.33760
730.80,77.45966
731.00,77.55677
731.20,77.64026
731.40,77.68117
731.60,77.75385
731.80,77.77354
732.00,77.80473
732.20,77.85566
732.40,77.97604
732.60,77.96886
732.80,77.95821
733.00,77.95396
733.20,78.03184
733.40,78.04148
733.60,78.18300
733.80,78.26117
734.00,78.38660
734.20,78.37952
734.40,78.45238
734.60,78.48470
734.80,78.50385
735.00,78.49410
735.20,78.54302
735.40,78.58410
735.60,78.62206
735.80,78.75453
736.00,78.81836
736.20,78.89639
736.40,78.90422
736.60,78.96913
736.80,78.97066
737.00,79.02083
737.20,79.04987
737.40,79.08946
737.60,79.09477
737.80,79.17100
738.00,79.21451
738.20,79.24483
738.40,79.28731
738.60,79.35113
738.80,79.33014
739.00,79.35101
739.20,79.45363
739.40,79.53685
739.60,79.55377
739.80,79.63753
740.00,79.71947
740.20,79.67271
740.40,79.66921
740.60,79.72071
740.80,79.73549
741.00,79.67857
741.20,79.76206
741.40,79.86151
741.60,79.91344
741.80,79.99567
742.00,80.09897
742.20,80.11123
742.40,80.09461
742.60,80.19676
742.80,80.18621
743.00,80.24198
743.20,80.36869
743.40,80.42687
743.60,80.38493
743.80,80.39851
744.00,80.48987
744.20,80.49750
744.40,80.53380
744.60,80.58578
744.80,80.70290
745.00,80.68454
745.20,80.67523
745.40,80.75851
745.60,80.81972
745.80,80.84495
746.00,80.89397
746.20,81.00910
746.40,81.08875
746.60,81.15169
746.80,81.18439
747.00,81.17634
747.20,81.12984
747.40,81.08231
747.60,81.09621
747.80,81.11559
748.00,81.20756
748.20,81.29081
748.40,81.34654
748.60,81.33340
748.80,81.43413
749.00,81.43556
749.20,81.46798
749.40,81.55459
749.60,81.65694
749.80,81.66963
750.00,81.76057
750.20,81.77351
750.40,81.77752
750.60,81.80958
750.80,81.85597
751.00,81.90283
751.20,82.00116
751.40,82.03319
751.60,82.06822
751.80,82.04386
752.00,82.00917
752.20,81.99061
752.40,82.04122
752.60,82.05220
752.80,82.13359
753.00,82.23363
753.20,82.28996
753.40,82.35645
753.60,82.43040
753.80,82.50263
754.00,82.55340
754.20,82.57176
754.40,82.54008
754.60,82.55490
754.80,82.58480
755.00,82.57532
755.20,82.64216
755.40,82.68076
755.60,82.72254
755.80,82.73689
756.00,82.77986
756.20,82.85012
756.40,82.84465
756.60,82.97497
756.80,83.00094
757.00,83.04365
757.20,83.01013
757.40,83.18391
757.60,83.10798
757.80,83.16374
758.00,83.20420
758.20,83.23315
758.40,83.21466
758.60,83.29128
758.80,83.31087
759.00,83.35998
759.20,83.36086
759.40,83.35211
759.60,83.38247
759.80,83.45372
760.00,83.48032
760.20,83.51850
760.40,83.60269
760.60,83.66621
760.80,83.65675
761.00,83.67001
761.20,83.74245
761.40,83.65775
761.60,83.60555
761.80,83.62764
762.00,83.73351
762.20,83.78994
762.40,83.88895
762.60,83.96166
762.80,84.02511
763.00,83.98421
763.20,84.00598
763.40,84.00362
763.60,84.01364
763.80,84.03081
764.00,84.06932
764.20,84.14631
764.40,84.21931
764.60,84.28535
764.80,84.34927
765.00,84.42947
765.20,84.42088
765.40,84.45686
765.60,84.47403
765.80,84.52806
766.00,84.55746
766.20,84.64687
766.40,84.70124
766.60,84.68779
766.80,84.65768
767.00,84.70113
767.20,84.67429
767.40,84.73473
767.60,84.91879
767.80,84.91874
768.00,84.90951
768.20,84.96675
768.40,84.97081
768.60,84.91901
768.80,85.00053
769.00,84.96940
769.20,84.97603
769.40,84.92268
769.60,84.86006
769.80,84.81611
770.00,84.87192
770.20,84.91475
770.40,85.03906
770.60,85.10988
770.80,85.18120
771.00,85.24628
771.20,85.30347
771.40,85.24581
771.60,85.30725
771.80,85.37510
772.00,85.39951
772.20,85.42718
772.40,85.51219
772.60,85.49852
772.80,85.40118
773.00,85.43361
773.20,85.49453
773.40,85.52587
773.60,85.58177
773.80,85.65965
774.00,85.69365
774.20,85.62415
774.40,85.70560
774.60,85.78001
774.80,85.84135
775.00,85.86967
775.20,85.88679
775.40,85.80279
775.60,85.76524
775.80,85.86886
776.00,85.81526
776.20,85.93892
776.40,85.96881
776.60,86.00530
776.80,86.04186
777.00,86.08592
777.20,86.04054
777.40,86.12309
777.60,86.22197
777.80,86.17046
778.00,86.25782
778.20,86.31709
778.40,86.37738
778.60,86.31716
778.80,86.32929
779.00,86.28711
779.20,86.39876
779.40,86.39700
779.60,86.46320
779.80,86.53660
780.00,86.61537
780.20,86.47969
780.40,86.51970
780.60,86.55737
780.80,86.57426
781.00,86.61091
781.20,86.67873
781.40,86.63797
781.60,86.64024
781.80,86.69237
782.00,86.73981
782.20,86.74076
782.40,86.80453
782.60,86.88481
782.80,86.85619
783.00,86.85417
783.20,86.82060
783.40,86.82247
783.60,86.79685
783.80,86.90129
784.00,86.95875
784.20,87.06962
784.40,87.13859
784.60,87.18712
784.80,87.19805
785.00,87.18095
785.20,87.27797
785.40,87.20837
785.60,87.11306
785.80,87.15106
786.00,87.19227
786.20,87.16643
786.40,87.32454
786.60,87.39858
786.80,87.32312
787.00,87.29104
787.20,87.27318
787.40,87.22860
787.60,87.27120
787.80,87.33319
788.00,87.40770
788.20,87.47108
788.40,87.48521
788.60,87.53066
788.80,87.57654
789.00,87.58341
789.20,87.61822
789.40,87.63645
789.60,87.68276
789.80,87.72480
790.00,87.76325
790.20,87.79373
790.40,87.78999
790.60,87.75836
790.80,87.75775
791.00,87.77098
791.20,87.80007
791.40,87.84793
791.60,87.85756
791.80,87.90084
792.00,87.93443
792.20,87.95288
792.40,87.93562
792.60,88.08649
792.80,88.15305
793.00,88.12805
793.20,88.21259
793.40,88.28100
793.60,88.25790
793.80,88.21312
794.00,88.28222
794.20,88.12526
794.40,88.12599
794.60,88.01752
794.80,88.08232
795.00,88.06716
795.20,88.18517
795.40,88.22316
795.60,88.23724
795.80,88.12892
796.00,88.25634
796.20,88.23580
796.40,88.27391
796.60,88.32822
796.80,88.35168
797.00,88.24559
797.20,88.29603
797.40,88.39125
797.60,88.51802
797.80,88.67248
798.00,88.71832
798.20,88.73008
798.40,88.67671
798.60,88.59560
798.80,88.52368
799.00,88.52248
799.20,88.58327
799.40,88.61052
799.60,88.70919
799.80,88.76426
800.00,88.83403
