"ResinDeffR - RawData"
"Wavelength nm.","R%"
200.00,7.85506
200.20,7.84794
200.40,7.90751
200.60,7.86319
200.80,7.84006
201.00,7.74097
201.20,7.71805
201.40,7.60932
201.60,7.59062
201.80,7.59180
202.00,7.59885
202.20,7.61745
202.40,7.61486
202.60,7.66564
202.80,7.64245
203.00,7.67088
203.20,7.56541
203.40,7.52955
203.60,7.46412
203.80,7.47024
204.00,7.49954
204.20,7.55456
204.40,7.57066
204.60,7.47235
204.80,7.45215
205.00,7.44348
205.20,7.38769
205.40,7.30720
205.60,7.34419
205.80,7.30255
206.00,7.27081
206.20,7.22831
206.40,7.23716
206.60,7.22105
206.80,7.20169
207.00,7.18465
207.20,7.18589
207.40,7.17207
207.60,7.18135
207.80,7.17427
208.00,7.16359
208.20,7.19587
208.40,7.16111
208.60,7.15857
208.80,7.13524
209.00,7.09729
209.20,7.02880
209.40,7.06391
209.60,7.06675
209.80,7.08697
210.00,7.09150
210.20,7.12277
210.40,7.05745
210.60,6.97522
210.80,6.98350
211.00,7.02437
211.20,7.00286
211.40,7.00679
211.60,7.03704
211.80,6.99776
212.00,6.94813
212.20,6.92042
212.40,6.92315
212.60,6.93051
212.80,6.94947
213.00,6.94630
213.20,6.93778
213.40,6.94126
213.60,6.90558
213.80,6.87912
214.00,6.84426
214.20,6.83276
214.40,6.83095
214.60,6.84665
214.80,6.88166
215.00,6.89241
215.20,6.92903
215.40,6.89459
215.60,6.88460
215.80,6.84397
216.00,6.81617
216.20,6.79500
216.40,6.82075
216.60,6.78122
216.80,6.79499
217.00,6.79567
217.20,6.77884
217.40,6.76718
217.60,6.80265
217.80,6.79532
218.00,6.82872
218.20,6.85911
218.40,6.85838
218.60,6.80723
218.80,6.79893
219.00,6.79753
219.20,6.76811
219.40,6.78941
219.60,6.83612
219.80,6.84602
220.00,6.81611
220.20,6.80213
220.40,6.79531
220.60,6.79655
220.80,6.78743
221.00,6.78633
221.20,6.80116
221.40,6.77666
221.60,6.75343
221.80,6.74698
222.00,6.75434
222.20,6.74736
222.40,6.75891
222.60,6.78415
222.80,6.79449
223.00,6.79620
223.20,6.81617
223.40,6.80596
223.60,6.81015
223.80,6.79304
224.00,6.80039
224.20,6.79643
224.40,6.80374
224.60,6.80611
224.80,6.82253
225.00,6.80869
225.20,6.79870
225.40,6.82124
225.60,6.82181
225.80,6.83472
226.00,6.85449
226.20,6.86051
226.40,6.83906
226.60,6.82601
226.80,6.81675
227.00,6.78931
227.20,6.77461
227.40,6.79162
227.60,6.78574
227.80,6.78428
228.00,6.79754
228.20,6.80399
228.40,6.79194
228.60,6.81299
228.80,6.82165
229.00,6.83146
229.20,6.83947
229.40,6.83313
229.60,6.80751
229.80,6.79523
230.00,6.79755
230.20,6.80807
230.40,6.84802
230.60,6.86041
230.80,6.87224
231.00,6.88175
231.20,6.88300
231.40,6.87239
231.60,6.87333
231.80,6.86572
232.00,6.84777
232.20,6.82951
232.40,6.83377
232.60,6.83514
232.80,6.85320
233.00,6.85314
233.20,6.86495
233.40,6.83891
233.60,6.82093
233.80,6.81090
234.00,6.81213
234.20,6.80158
234.40,6.81770
234.60,6.83537
234.80,6.82707
235.00,6.82521
235.20,6.84084
235.40,6.84535
235.60,6.84777
235.80,6.84395
236.00,6.85724
236.20,6.84975
236.40,6.83054
236.60,6.83338
236.80,6.82794
237.00,6.80491
237.20,6.79494
237.40,6.78307
237.60,6.75913
237.80,6.75797
238.00,6.75456
238.20,6.76318
238.40,6.77025
238.60,6.77621
238.80,6.75096
239.00,6.76237
239.20,6.74370
239.40,6.72543
239.60,6.72610
239.80,6.75102
240.00,6.73998
240.20,6.74794
240.40,6.75207
240.60,6.72665
240.80,6.69459
241.00,6.68004
241.20,6.65188
241.40,6.63103
241.60,6.63581
241.80,6.64396
242.00,6.63428
242.20,6.64149
242.40,6.65027
242.60,6.64078
242.80,6.63374
243.00,6.63748
243.20,6.62438
243.40,6.61236
243.60,6.61524
243.80,6.59473
244.00,6.57148
244.20,6.56617
244.40,6.55095
244.60,6.54149
244.80,6.52935
245.00,6.52158
245.20,6.51845
245.40,6.52755
245.60,6.52294
245.80,6.53856
246.00,6.52828
246.20,6.49797
246.40,6.47610
246.60,6.45680
246.80,6.42401
247.00,6.43414
247.20,6.45103
247.40,6.44554
247.60,6.45949
247.80,6.46477
248.00,6.47012
248.20,6.44981
248.40,6.45162
248.60,6.41950
248.80,6.42138
249.00,6.39837
249.20,6.40797
249.40,6.39934
249.60,6.40686
249.80,6.40153
250.00,6.41138
250.20,6.38736
250.40,6.37898
250.60,6.37662
250.80,6.38140
251.00,6.35703
251.20,6.37156
251.40,6.36747
251.60,6.36044
251.80,6.34478
252.00,6.35375
252.20,6.36652
252.40,6.36588
252.60,6.36335
252.80,6.36204
253.00,6.35300
253.20,6.33154
253.40,6.34152
253.60,6.33665
253.80,6.33515
254.00,6.33258
254.20,6.33752
254.40,6.32974
254.60,6.33175
254.80,6.33825
255.00,6.34683
255.20,6.33979
255.40,6.33687
255.60,6.33500
255.80,6.32389
256.00,6.31298
256.20,6.30946
256.40,6.30605
256.60,6.30761
256.80,6.30143
257.00,6.29354
257.20,6.28458
257.40,6.27836
257.60,6.27633
257.80,6.27153
258.00,6.27042
258.20,6.27896
258.40,6.28401
258.60,6.27211
258.80,6.26784
259.00,6.25837
259.20,6.24962
259.40,6.24679
259.60,6.24541
259.80,6.23842
260.00,6.25856
260.20,6.25761
260.40,6.24707
260.60,6.24154
260.80,6.25524
261.00,6.23978
261.20,6.24625
261.40,6.24335
261.60,6.24504
261.80,6.24423
262.00,6.24706
262.20,6.23251
262.40,6.23802
262.60,6.24343
262.80,6.24220
263.00,6.23886
263.20,6.24212
263.40,6.24611
263.60,6.24328
263.80,6.24429
264.00,6.24965
264.20,6.24787
264.40,6.25409
264.60,6.25800
264.80,6.25599
265.00,6.25989
265.20,6.26891
265.40,6.26153
265.60,6.26149
265.80,6.26577
266.00,6.26413
266.20,6.24775
266.40,6.24538
266.60,6.24254
266.80,6.23146
267.00,6.22307
267.20,6.22421
267.40,6.21547
267.60,6.19480
267.80,6.19608
268.00,6.20143
268.20,6.20781
268.40,6.21463
268.60,6.23042
268.80,6.23803
269.00,6.21390
269.20,6.20801
269.40,6.19007
269.60,6.17753
269.80,6.15548
270.00,6.16078
270.20,6.15178
270.40,6.15727
270.60,6.14504
270.80,6.14250
271.00,6.13702
271.20,6.13222
271.40,6.11806
271.60,6.12274
271.80,6.12609
272.00,6.12596
272.20,6.11794
272.40,6.12159
272.60,6.12151
272.80,6.11513
273.00,6.11870
273.20,6.12421
273.40,6.12935
273.60,6.13403
273.80,6.14640
274.00,6.14427
274.20,6.16508
274.40,6.16899
274.60,6.18779
274.80,6.18897
275.00,6.19973
275.20,6.18958
275.40,6.20054
275.60,6.18249
275.80,6.18176
276.00,6.18185
276.20,6.17581
276.40,6.16156
276.60,6.16986
276.80,6.17035
277.00,6.16822
277.20,6.18346
277.40,6.19759
277.60,6.18977
277.80,6.19664
278.00,6.20229
278.20,6.21372
278.40,6.21457
278.60,6.22638
278.80,6.22107
279.00,6.22281
279.20,6.21381
279.40,6.21128
279.60,6.21742
279.80,6.22604
280.00,6.23502
280.20,6.23804
280.40,6.23784
280.60,6.23410
280.80,6.22690
281.00,6.21955
281.20,6.22150
281.40,6.23461
281.60,6.23144
281.80,6.23969
282.00,6.24338
282.20,6.24152
282.40,6.23152
282.60,6.23757
282.80,6.23432
283.00,6.23862
283.20,6.25044
283.40,6.25984
283.60,6.26742
283.80,6.27949
284.00,6.27801
284.20,6.27349
284.40,6.26797
284.60,6.27487
284.80,6.27102
285.00,6.28927
285.20,6.28920
285.40,6.29932
285.60,6.29228
285.80,6.29114
286.00,6.27802
286.20,6.27544
286.40,6.27381
286.60,6.27405
286.80,6.28032
287.00,6.28107
287.20,6.29618
287.40,6.29954
287.60,6.30402
287.80,6.29222
288.00,6.29301
288.20,6.27023
288.40,6.25895
288.60,6.26029
288.80,6.28418
289.00,6.28325
289.20,6.29972
289.40,6.30433
289.60,6.31781
289.80,6.31664
290.00,6.32533
290.20,6.32857
290.40,6.33593
290.60,6.33169
290.80,6.33185
291.00,6.33529
291.20,6.33159
291.40,6.33132
291.60,6.33574
291.80,6.33007
292.00,6.32807
292.20,6.33031
292.40,6.31909
292.60,6.30037
292.80,6.30452
293.00,6.30491
293.20,6.30762
293.40,6.32252
293.60,6.34395
293.80,6.33544
294.00,6.34147
294.20,6.35164
294.40,6.34305
294.60,6.34543
294.80,6.37028
295.00,6.38176
295.20,6.37766
295.40,6.38618
295.60,6.37974
295.80,6.36939
296.00,6.35477
296.20,6.36076
296.40,6.37425
296.60,6.39032
296.80,6.39290
297.00,6.39360
297.20,6.40961
297.40,6.40892
297.60,6.40894
297.80,6.41345
298.00,6.43088
298.20,6.42093
298.40,6.42070
298.60,6.42373
298.80,6.43048
299.00,6.43066
299.20,6.45200
299.40,6.46896
299.60,6.47014
299.80,6.48486
300.00,6.49613
300.20,6.48664
300.40,6.50134
300.60,6.51900
300.80,6.52665
301.00,6.52961
301.20,6.53026
301.40,6.53391
301.60,6.54066
301.80,6.52954
302.00,6.53356
302.20,6.55266
302.40,6.55251
302.60,6.55607
302.80,6.56346
303.00,6.56646
303.20,6.56504
303.40,6.57418
303.60,6.57778
303.80,6.58986
304.00,6.59409
304.20,6.60843
304.40,6.61388
304.60,6.61545
304.80,6.62011
305.00,6.64059
305.20,6.65369
305.40,6.64618
305.60,6.65878
305.80,6.66900
306.00,6.68047
306.20,6.68986
306.40,6.70491
306.60,6.70735
306.80,6.70843
307.00,6.71269
307.20,6.71037
307.40,6.72031
307.60,6.73189
307.80,6.75093
308.00,6.75040
308.20,6.75241
308.40,6.77809
308.60,6.78246
308.80,6.78777
309.00,6.81296
309.20,6.83313
309.40,6.82900
309.60,6.84457
309.80,6.86244
310.00,6.86976
310.20,6.88647
310.40,6.89378
310.60,6.91154
310.80,6.93126
311.00,6.93535
311.20,6.94784
311.40,6.97542
311.60,6.97846
311.80,6.98242
312.00,7.00007
312.20,7.01060
312.40,7.01998
312.60,7.03678
312.80,7.05821
313.00,7.08216
313.20,7.07613
313.40,7.08834
313.60,7.10321
313.80,7.10839
314.00,7.12069
314.20,7.15667
314.40,7.17886
314.60,7.20577
314.80,7.22472
315.00,7.22183
315.20,7.22375
315.40,7.21363
315.60,7.22109
315.80,7.23941
316.00,7.27344
316.20,7.29080
316.40,7.31904
316.60,7.32555
316.80,7.34005
317.00,7.34210
317.20,7.36894
317.40,7.38599
317.60,7.41726
317.80,7.44038
318.00,7.45634
318.20,7.46967
318.40,7.49154
318.60,7.50865
318.80,7.51485
319.00,7.54894
319.20,7.56905
319.40,7.58749
319.60,7.59319
319.80,7.62217
320.00,7.63865
320.20,7.65956
320.40,7.69072
320.60,7.72478
320.80,7.74606
321.00,7.76819
321.20,7.80787
321.40,7.83031
321.60,7.85571
321.80,7.89532
322.00,7.91288
322.20,7.92738
322.40,7.94646
322.60,7.97696
322.80,7.97251
323.00,7.99282
323.20,8.01379
323.40,8.02367
323.60,8.04540
323.80,8.06634
324.00,8.08954
324.20,8.11620
324.40,8.14362
324.60,8.17506
324.80,8.22435
325.00,8.25980
325.20,8.28927
325.40,8.31592
325.60,8.31986
325.80,8.34948
326.00,8.36957
326.20,8.37983
326.40,8.41183
326.60,8.44197
326.80,8.44654
327.00,8.48860
327.20,8.53570
327.40,8.57833
327.60,8.61891
327.80,8.66404
328.00,8.69070
328.20,8.72331
328.40,8.75002
328.60,8.78549
328.80,8.80342
329.00,8.84509
329.20,8.87150
329.40,8.90561
329.60,8.92847
329.80,8.97315
330.00,8.99798
330.20,9.03579
330.40,9.06590
330.60,9.09657
330.80,9.14302
331.00,9.17818
331.20,9.22344
331.40,9.27312
331.60,9.33453
331.80,9.36330
332.00,9.42490
332.20,9.45534
332.40,9.49456
332.60,9.53709
332.80,9.57911
333.00,9.57953
333.20,9.62014
333.40,9.64788
333.60,9.68067
333.80,9.73236
334.00,9.79283
334.20,9.81717
334.40,9.86785
334.60,9.90571
334.80,9.94272
335.00,9.99074
335.20,10.04643
335.40,10.10206
335.60,10.14786
335.80,10.19749
336.00,10.23816
336.20,10.27760
336.40,10.31229
336.60,10.36489
336.80,10.41369
337.00,10.47212
337.20,10.54175
337.40,10.57187
337.60,10.60878
337.80,10.65030
338.00,10.68760
338.20,10.71781
338.40,10.77360
338.60,10.82330
338.80,10.87672
339.00,10.91753
339.20,10.96459
339.40,10.99397
339.60,11.03162
339.80,11.05107
340.00,11.09851
340.20,11.14822
340.40,11.20731
340.60,11.25123
340.80,11.28814
341.00,11.33006
341.20,11.35805
341.40,11.39912
341.60,11.42972
341.80,11.46797
342.00,11.49287
342.20,11.52349
342.40,11.55728
342.60,11.58317
342.80,11.62534
343.00,11.66809
343.20,11.70062
343.40,11.71574
343.60,11.76874
343.80,11.80263
344.00,11.83815
344.20,11.87638
344.40,11.91245
344.60,11.92569
344.80,11.95087
345.00,11.95547
345.20,11.97076
345.40,12.00958
345.60,12.04257
345.80,12.07278
346.00,12.12660
346.20,12.16346
346.40,12.20298
346.60,12.23457
346.80,12.26690
347.00,12.29396
347.20,12.33256
347.40,12.34130
347.60,12.37207
347.80,12.40064
348.00,12.42536
348.20,12.45079
348.40,12.49217
348.60,12.52242
348.80,12.56710
349.00,12.60004
349.20,12.63159
349.40,12.65043
349.60,12.68237
349.80,12.70067
350.00,12.72556
350.20,12.75659
350.40,12.80054
350.60,12.83952
350.80,12.86885
351.00,12.90854
351.20,12.93160
351.40,12.97335
351.60,13.01281
351.80,13.05304
352.00,13.08335
352.20,13.14511
352.40,13.17953
352.60,13.21816
352.80,13.24763
353.00,13.29197
353.20,13.31320
353.40,13.34561
353.60,13.37425
353.80,13.41666
354.00,13.45835
354.20,13.49763
354.40,13.54084
354.60,13.56165
354.80,13.59484
355.00,13.62031
355.20,13.66171
355.40,13.68956
355.60,13.72206
355.80,13.76258
356.00,13.81258
356.20,13.84585
356.40,13.89271
356.60,13.93885
356.80,13.95610
357.00,13.96947
357.20,13.98564
357.40,13.99950
357.60,14.02413
357.80,14.06539
358.00,14.09674
358.20,14.12287
358.40,14.13773
358.60,14.14412
358.80,14.14929
359.00,14.15311
359.20,14.15724
359.40,14.16949
359.60,14.19288
359.80,14.21223
360.00,14.22113
360.20,14.24065
360.40,14.24951
360.60,14.26354
360.80,14.25556
361.00,14.26027
361.20,14.24461
361.40,14.24159
361.60,14.23272
361.80,14.22683
362.00,14.22243
362.20,14.23463
362.40,14.23042
362.60,14.21237
362.80,14.22115
363.00,14.22214
363.20,14.22046
363.40,14.22509
363.60,14.23175
363.80,14.21883
364.00,14.22311
364.20,14.21990
364.40,14.20863
364.60,14.22039
364.80,14.24154
365.00,14.25767
365.20,14.27115
365.40,14.29898
365.60,14.31334
365.80,14.32400
366.00,14.32839
366.20,14.32877
366.40,14.32976
366.60,14.34063
366.80,14.35481
367.00,14.36784
367.20,14.38395
367.40,14.40459
367.60,14.41782
367.80,14.42892
368.00,14.43194
368.20,14.46235
368.40,14.48884
368.60,14.51605
368.80,14.53083
369.00,14.56464
369.20,14.58575
369.40,14.59478
369.60,14.61785
369.80,14.65320
370.00,14.67725
370.20,14.70073
370.40,14.73211
370.60,14.77011
370.80,14.79564
371.00,14.82915
371.20,14.86573
371.40,14.91286
371.60,14.94238
371.80,14.98641
372.00,15.01487
372.20,15.04887
372.40,15.07894
372.60,15.09100
372.80,15.12747
373.00,15.16258
373.20,15.20067
373.40,15.23270
373.60,15.28476
373.80,15.30543
374.00,15.34170
374.20,15.36207
374.40,15.38119
374.60,15.40246
374.80,15.43447
375.00,15.47199
375.20,15.50648
375.40,15.53515
375.60,15.56665
375.80,15.59566
376.00,15.62506
376.20,15.65104
376.40,15.68318
376.60,15.71112
376.80,15.72360
377.00,15.73144
377.20,15.74574
377.40,15.76792
377.60,15.78553
377.80,15.81726
378.00,15.83885
378.20,15.86858
378.40,15.88667
378.60,15.89266
378.80,15.90002
379.00,15.90620
379.20,15.90499
379.40,15.90907
379.60,15.91364
379.80,15.91611
380.00,15.91224
380.20,15.89905
380.40,15.89554
380.60,15.89549
380.80,15.89141
381.00,15.88780
381.20,15.88008
381.40,15.87139
381.60,15.86106
381.80,15.84155
382.00,15.83451
382.20,15.83699
382.40,15.82469
382.60,15.80863
382.80,15.79776
383.00,15.78200
383.20,15.75548
383.40,15.73229
383.60,15.72521
383.80,15.71787
384.00,15.70896
384.20,15.70647
384.40,15.69715
384.60,15.67916
384.80,15.67287
385.00,15.65039
385.20,15.64283
385.40,15.63814
385.60,15.62993
385.80,15.60571
386.00,15.60456
386.20,15.59529
386.40,15.58794
386.60,15.57557
386.80,15.57383
387.00,15.56430
387.20,15.54971
387.40,15.53860
387.60,15.54600
387.80,15.53800
388.00,15.53717
388.20,15.53636
388.40,15.54186
388.60,15.53915
388.80,15.55931
389.00,15.56205
389.20,15.56649
389.40,15.57993
389.60,15.58166
389.80,15.57800
390.00,15.59327
390.20,15.61889
390.40,15.62003
390.60,15.63432
390.80,15.64947
391.00,15.65982
391.20,15.66224
391.40,15.67270
391.60,15.68658
391.80,15.69411
392.00,15.70607
392.20,15.70982
392.40,15.72596
392.60,15.73433
392.80,15.75251
393.00,15.75968
393.20,15.78563
393.40,15.80215
393.60,15.83287
393.80,15.85246
394.00,15.86914
394.20,15.88995
394.40,15.90527
394.60,15.91192
394.80,15.93240
395.00,15.94803
395.20,15.97622
395.40,15.99397
395.60,16.00667
395.80,16.01808
396.00,16.04546
396.20,16.05928
396.40,16.09618
396.60,16.12916
396.80,16.15779
397.00,16.18733
397.20,16.20755
397.40,16.22910
397.60,16.26661
397.80,16.29143
398.00,16.30623
398.20,16.33654
398.40,16.36722
398.60,16.39620
398.80,16.42257
399.00,16.45909
399.20,16.49233
399.40,16.51809
399.60,16.52907
399.80,16.56750
400.00,16.60348
400.20,16.62639
400.40,16.65916
400.60,16.69621
400.80,16.71688
401.00,16.74412
401.20,16.77619
401.40,16.79803
401.60,16.82140
401.80,16.85336
402.00,16.88242
402.20,16.89772
402.40,16.91113
402.60,16.92356
402.80,16.93207
403.00,16.94057
403.20,16.95837
403.40,16.97263
403.60,16.98295
403.80,16.99307
404.00,17.00266
404.20,17.01127
404.40,17.01600
404.60,17.02283
404.80,17.02743
405.00,17.02004
405.20,17.01375
405.40,17.01418
405.60,17.00911
405.80,17.00718
406.00,17.00240
406.20,16.99784
406.40,16.98356
406.60,16.96908
406.80,16.94587
407.00,16.93099
407.20,16.90976
407.40,16.90097
407.60,16.88480
407.80,16.86140
408.00,16.83801
408.20,16.82291
408.40,16.79294
408.60,16.77302
408.80,16.75202
409.00,16.73465
409.20,16.70944
409.40,16.68714
409.60,16.67041
409.80,16.66631
410.00,16.65025
410.20,16.63812
410.40,16.63291
410.60,16.61735
410.80,16.60201
411.00,16.59471
411.20,16.58731
411.40,16.58511
411.60,16.58417
411.80,16.58660
412.00,16.58321
412.20,16.57832
412.40,16.57137
412.60,16.58431
412.80,16.59975
413.00,16.62400
413.20,16.66257
413.40,16.69883
413.60,16.72733
413.80,16.76676
414.00,16.81605
414.20,16.86138
414.40,16.91828
414.60,16.98367
414.80,17.04490
415.00,17.11001
415.20,17.17627
415.40,17.24231
415.60,17.30604
415.80,17.38037
416.00,17.46192
416.20,17.55355
416.40,17.64467
416.60,17.75738
416.80,17.86496
417.00,17.97404
417.20,18.08350
417.40,18.20077
417.60,18.30654
417.80,18.42142
418.00,18.53051
418.20,18.64274
418.40,18.76816
418.60,18.89410
418.80,19.01759
419.00,19.14968
419.20,19.28602
419.40,19.42076
419.60,19.55150
419.80,19.67778
420.00,19.80830
420.20,19.93345
420.40,20.05290
420.60,20.18639
420.80,20.32054
421.00,20.44341
421.20,20.57883
421.40,20.71694
421.60,20.84749
421.80,20.97414
422.00,21.11320
422.20,21.23531
422.40,21.36312
422.60,21.48692
422.80,21.61468
423.00,21.74103
423.20,21.86705
423.40,21.97841
423.60,22.09055
423.80,22.21243
424.00,22.32170
424.20,22.43561
424.40,22.54977
424.60,22.66630
424.80,22.75507
425.00,22.85270
425.20,22.95355
425.40,23.05101
425.60,23.13833
425.80,23.24684
426.00,23.34048
426.20,23.42749
426.40,23.52628
426.60,23.61409
426.80,23.69719
427.00,23.77809
427.20,23.85367
427.40,23.91477
427.60,23.99278
427.80,24.06144
428.00,24.13795
428.20,24.20811
428.40,24.27851
428.60,24.33910
428.80,24.41025
429.00,24.47726
429.20,24.54474
429.40,24.61487
429.60,24.70029
429.80,24.75180
430.00,24.80919
430.20,24.86565
430.40,24.92339
430.60,24.94895
430.80,25.01002
431.00,25.05691
431.20,25.10920
431.40,25.14971
431.60,25.20724
431.80,25.23904
432.00,25.28603
432.20,25.32960
432.40,25.37892
432.60,25.43360
432.80,25.49400
433.00,25.54140
433.20,25.58126
433.40,25.62034
433.60,25.64576
433.80,25.68173
434.00,25.71588
434.20,25.74354
434.40,25.78330
434.60,25.82171
434.80,25.86005
435.00,25.90035
435.20,25.93515
435.40,25.96374
435.60,26.00376
435.80,26.02571
436.00,26.04156
436.20,26.08464
436.40,26.11177
436.60,26.13417
436.80,26.17048
437.00,26.20420
437.20,26.22872
437.40,26.26204
437.60,26.29575
437.80,26.32702
438.00,26.36692
438.20,26.39480
438.40,26.41729
438.60,26.44699
438.80,26.47858
439.00,26.49638
439.20,26.52269
439.40,26.55802
439.60,26.57178
439.80,26.59416
440.00,26.61641
440.20,26.64678
440.40,26.65303
440.60,26.68185
440.80,26.69362
441.00,26.71321
441.20,26.72930
441.40,26.75107
441.60,26.77243
441.80,26.78772
442.00,26.80614
442.20,26.80840
442.40,26.83012
442.60,26.85708
442.80,26.88164
443.00,26.90401
443.20,26.94448
443.40,26.97598
443.60,26.98006
443.80,26.98808
444.00,27.00264
444.20,27.01461
444.40,27.01690
444.60,27.03395
444.80,27.05273
445.00,27.07447
445.20,27.07771
445.40,27.10496
445.60,27.12192
445.80,27.13786
446.00,27.14222
446.20,27.16623
446.40,27.17577
446.60,27.18682
446.80,27.19761
447.00,27.21637
447.20,27.22534
447.40,27.22890
447.60,27.23868
447.80,27.26347
448.00,27.26905
448.20,27.28296
448.40,27.29690
448.60,27.31182
448.80,27.31484
449.00,27.33466
449.20,27.34706
449.40,27.37003
449.60,27.37875
449.80,27.39821
450.00,27.40282
450.20,27.41527
450.40,27.41573
450.60,27.43472
450.80,27.44063
451.00,27.44776
451.20,27.45142
451.40,27.46746
451.60,27.47272
451.80,27.48821
452.00,27.51131
452.20,27.53307
452.40,27.54371
452.60,27.55465
452.80,27.56930
453.00,27.57900
453.20,27.58243
453.40,27.58960
453.60,27.60543
453.80,27.60746
454.00,27.62113
454.20,27.63188
454.40,27.64628
454.60,27.65425
454.80,27.66402
455.00,27.66914
455.20,27.67906
455.40,27.68078
455.60,27.68390
455.80,27.68722
456.00,27.69512
456.20,27.70612
456.40,27.71582
456.60,27.71715
456.80,27.73957
457.00,27.74528
457.20,27.75860
457.40,27.76833
457.60,27.79663
457.80,27.78935
458.00,27.80488
458.20,27.80084
458.40,27.80685
458.60,27.80174
458.80,27.81619
459.00,27.81138
459.20,27.82085
459.40,27.83687
459.60,27.84620
459.80,27.85759
460.00,27.87401
460.20,27.88261
460.40,27.88368
460.60,27.89750
460.80,27.90234
461.00,27.91176
461.20,27.91873
461.40,27.91938
461.60,27.91328
461.80,27.91148
462.00,27.91514
462.20,27.91320
462.40,27.92939
462.60,27.93283
462.80,27.93262
463.00,27.93290
463.20,27.94052
463.40,27.93704
463.60,27.94608
463.80,27.96363
464.00,27.96645
464.20,27.97079
464.40,27.97368
464.60,27.97869
464.80,27.97472
465.00,27.98340
465.20,27.99604
465.40,28.00535
465.60,28.00536
465.80,28.01518
466.00,28.01487
466.20,28.00807
466.40,28.01256
466.60,28.01691
466.80,28.01706
467.00,28.02188
467.20,28.02521
467.40,28.02045
467.60,28.03280
467.80,28.03306
468.00,28.03287
468.20,28.03278
468.40,28.04896
468.60,28.04000
468.80,28.03740
469.00,28.03921
469.20,28.05000
469.40,28.03462
469.60,28.03545
469.80,28.04547
470.00,28.04183
470.20,28.03148
470.40,28.03541
470.60,28.03376
470.80,28.02330
471.00,28.01604
471.20,28.02272
471.40,28.02399
471.60,28.02447
471.80,28.02325
472.00,28.03167
472.20,28.02860
472.40,28.01453
472.60,28.01255
472.80,28.00343
473.00,27.99213
473.20,27.98561
473.40,27.99079
473.60,27.99070
473.80,27.99045
474.00,27.98881
474.20,27.98278
474.40,27.98026
474.60,27.96973
474.80,27.96573
475.00,27.95529
475.20,27.94836
475.40,27.93393
475.60,27.92560
475.80,27.92366
476.00,27.92307
476.20,27.91299
476.40,27.90830
476.60,27.89573
476.80,27.88247
477.00,27.87012
477.20,27.86880
477.40,27.86190
477.60,27.86635
477.80,27.86715
478.00,27.86685
478.20,27.85915
478.40,27.85637
478.60,27.84321
478.80,27.83182
479.00,27.82184
479.20,27.81600
479.40,27.80553
479.60,27.79583
479.80,27.79041
480.00,27.77801
480.20,27.76833
480.40,27.75214
480.60,27.74350
480.80,27.72957
481.00,27.72150
481.20,27.71078
481.40,27.71144
481.60,27.70469
481.80,27.69611
482.00,27.68453
482.20,27.67607
482.40,27.65603
482.60,27.64055
482.80,27.63139
483.00,27.62612
483.20,27.61262
483.40,27.60956
483.60,27.60214
483.80,27.58886
484.00,27.57736
484.20,27.57269
484.40,27.56292
484.60,27.54952
484.80,27.53726
485.00,27.52748
485.20,27.51153
485.40,27.50413
485.60,27.50151
485.80,27.49375
486.00,27.47893
486.20,27.48047
486.40,27.46193
486.60,27.44332
486.80,27.43650
487.00,27.42755
487.20,27.39459
487.40,27.38608
487.60,27.37412
487.80,27.35324
488.00,27.33759
488.20,27.33897
488.40,27.31646
488.60,27.30439
488.80,27.29297
489.00,27.28326
489.20,27.26652
489.40,27.26223
489.60,27.25500
489.80,27.25411
490.00,27.24255
490.20,27.23526
490.40,27.21843
490.60,27.20822
490.80,27.18594
491.00,27.17731
491.20,27.16854
491.40,27.15902
491.60,27.14910
491.80,27.14385
492.00,27.13014
492.20,27.11756
492.40,27.11538
492.60,27.09591
492.80,27.08688
493.00,27.07218
493.20,27.06023
493.40,27.04593
493.60,27.03661
493.80,27.01989
494.00,27.01086
494.20,26.98786
494.40,26.96959
494.60,26.96017
494.80,26.95207
495.00,26.94555
495.20,26.93647
495.40,26.93055
495.60,26.91125
495.80,26.89129
496.00,26.86735
496.20,26.85983
496.40,26.84436
496.60,26.83246
496.80,26.82820
497.00,26.81737
497.20,26.80257
497.40,26.79355
497.60,26.78074
497.80,26.76044
498.00,26.74944
498.20,26.73035
498.40,26.70724
498.60,26.69703
498.80,26.67638
499.00,26.66513
499.20,26.65626
499.40,26.64402
499.60,26.62037
499.80,26.60383
500.00,26.58964
500.20,26.56768
500.40,26.54948
500.60,26.53968
500.80,26.53154
501.00,26.50842
501.20,26.49332
501.40,26.47346
501.60,26.45792
501.80,26.43992
502.00,26.41865
502.20,26.40448
502.40,26.39627
502.60,26.37893
502.80,26.35611
503.00,26.34874
503.20,26.32578
503.40,26.30482
503.60,26.29485
503.80,26.27607
504.00,26.26284
504.20,26.25352
504.40,26.23586
504.60,26.21154
504.80,26.20037
505.00,26.17515
505.20,26.15966
505.40,26.13185
505.60,26.11064
505.80,26.09137
506.00,26.07369
506.20,26.05119
506.40,26.04187
506.60,26.02297
506.80,26.00597
507.00,25.98696
507.20,25.96176
507.40,25.93374
507.60,25.91728
507.80,25.89499
508.00,25.87338
508.20,25.85577
508.40,25.84359
508.60,25.81756
508.80,25.79930
509.00,25.76683
509.20,25.74276
509.40,25.72022
509.60,25.70552
509.80,25.68027
510.00,25.67579
510.20,25.65344
510.40,25.63639
510.60,25.61561
510.80,25.59741
511.00,25.57815
511.20,25.56436
511.40,25.54238
511.60,25.51828
511.80,25.50240
512.00,25.47726
512.20,25.45683
512.40,25.43559
512.60,25.41354
512.80,25.39223
513.00,25.36808
513.20,25.35169
513.40,25.33921
513.60,25.32447
513.80,25.30238
514.00,25.28582
514.20,25.26663
514.40,25.23693
514.60,25.21161
514.80,25.19137
515.00,25.16760
515.20,25.14335
515.40,25.12284
515.60,25.10409
515.80,25.08860
516.00,25.07963
516.20,25.06163
516.40,25.04302
516.60,25.02645
516.80,24.99672
517.00,24.97424
517.20,24.95197
517.40,24.93135
517.60,24.91049
517.80,24.88813
518.00,24.86044
518.20,24.83730
518.40,24.81904
518.60,24.79543
518.80,24.77858
519.00,24.76226
519.20,24.74349
519.40,24.72262
519.60,24.70600
519.80,24.68714
520.00,24.66765
520.20,24.63881
520.40,24.62457
520.60,24.60116
520.80,24.59224
521.00,24.56292
521.20,24.54873
521.40,24.52369
521.60,24.50686
521.80,24.47627
522.00,24.46533
522.20,24.45606
522.40,24.43912
522.60,24.41774
522.80,24.39868
523.00,24.37554
523.20,24.34623
523.40,24.32605
523.60,24.31620
523.80,24.30366
524.00,24.29004
524.20,24.27376
524.40,24.25519
524.60,24.22504
524.80,24.20094
525.00,24.18169
525.20,24.16728
525.40,24.15420
525.60,24.13908
525.80,24.12267
526.00,24.10309
526.20,24.07343
526.40,24.04138
526.60,24.01566
526.80,23.99159
527.00,23.96480
527.20,23.94798
527.40,23.93222
527.60,23.91607
527.80,23.89611
528.00,23.88306
528.20,23.85984
528.40,23.83182
528.60,23.80560
528.80,23.78391
529.00,23.75369
529.20,23.73138
529.40,23.71817
529.60,23.70155
529.80,23.67350
530.00,23.65194
530.20,23.63729
530.40,23.61917
530.60,23.59929
530.80,23.58509
531.00,23.57405
531.20,23.55529
531.40,23.52629
531.60,23.50153
531.80,23.47809
532.00,23.46022
532.20,23.44512
532.40,23.42582
532.60,23.40718
532.80,23.39174
533.00,23.36065
533.20,23.32944
533.40,23.31455
533.60,23.29487
533.80,23.27700
534.00,23.26092
534.20,23.24069
534.40,23.21986
534.60,23.19865
534.80,23.17438
535.00,23.16270
535.20,23.14552
535.40,23.11856
535.60,23.09318
535.80,23.08328
536.00,23.05181
536.20,23.03029
536.40,23.01963
536.60,23.00162
536.80,22.97972
537.00,22.95851
537.20,22.93910
537.40,22.91490
537.60,22.90507
537.80,22.87573
538.00,22.86413
538.20,22.83920
538.40,22.81716
538.60,22.79783
538.80,22.77423
539.00,22.75186
539.20,22.74222
539.40,22.72634
539.60,22.70197
539.80,22.69319
540.00,22.67048
540.20,22.64466
540.40,22.62741
540.60,22.60728
540.80,22.57784
541.00,22.56159
541.20,22.54700
541.40,22.52468
541.60,22.50761
541.80,22.49290
542.00,22.47385
542.20,22.45733
542.40,22.44013
542.60,22.41620
542.80,22.39577
543.00,22.37651
543.20,22.35440
543.40,22.32581
543.60,22.31300
543.80,22.29588
544.00,22.27760
544.20,22.25562
544.40,22.24911
544.60,22.22866
544.80,22.20974
545.00,22.18158
545.20,22.16626
545.40,22.13989
545.60,22.11870
545.80,22.09952
546.00,22.08355
546.20,22.06357
546.40,22.04429
546.60,22.02528
546.80,22.00700
547.00,21.98808
547.20,21.96612
547.40,21.95288
547.60,21.93775
547.80,21.92359
548.00,21.91366
548.20,21.89781
548.40,21.87231
548.60,21.84544
548.80,21.83010
549.00,21.80432
549.20,21.78252
549.40,21.76635
549.60,21.75394
549.80,21.72754
550.00,21.70453
550.20,21.68450
550.40,21.66526
550.60,21.64212
550.80,21.62588
551.00,21.61464
551.20,21.60525
551.40,21.59690
551.60,21.58636
551.80,21.56623
552.00,21.55206
552.20,21.52669
552.40,21.50519
552.60,21.48687
552.80,21.47129
553.00,21.45507
553.20,21.43688
553.40,21.42239
553.60,21.40507
553.80,21.39264
554.00,21.37212
554.20,21.36079
554.40,21.34025
554.60,21.32470
554.80,21.30916
555.00,21.28812
555.20,21.26714
555.40,21.25154
555.60,21.23002
555.80,21.21100
556.00,21.20182
556.20,21.18700
556.40,21.17250
556.60,21.16239
556.80,21.14895
557.00,21.13658
557.20,21.12221
557.40,21.10847
557.60,21.09312
557.80,21.07064
558.00,21.05500
558.20,21.04636
558.40,21.02516
558.60,21.00883
558.80,20.99215
559.00,20.97030
559.20,20.95873
559.40,20.94837
559.60,20.93604
559.80,20.93539
560.00,20.93301
560.20,20.91628
560.40,20.90265
560.60,20.88719
560.80,20.87010
561.00,20.85037
561.20,20.83582
561.40,20.82270
561.60,20.81112
561.80,20.79046
562.00,20.77423
562.20,20.75709
562.40,20.74808
562.60,20.73975
562.80,20.74329
563.00,20.73650
563.20,20.73382
563.40,20.72297
563.60,20.70697
563.80,20.68596
564.00,20.67730
564.20,20.66529
564.40,20.65557
564.60,20.64474
564.80,20.63550
565.00,20.61874
565.20,20.60088
565.40,20.58414
565.60,20.57139
565.80,20.55576
566.00,20.54711
566.20,20.53914
566.40,20.53366
566.60,20.52811
566.80,20.51992
567.00,20.51402
567.20,20.50315
567.40,20.49176
567.60,20.48389
567.80,20.47727
568.00,20.46033
568.20,20.45521
568.40,20.44251
568.60,20.42548
568.80,20.40972
569.00,20.39913
569.20,20.38094
569.40,20.37252
569.60,20.36485
569.80,20.35880
570.00,20.34641
570.20,20.33797
570.40,20.33279
570.60,20.32578
570.80,20.31044
571.00,20.30442
571.20,20.30302
571.40,20.28728
571.60,20.27565
571.80,20.26865
572.00,20.26345
572.20,20.25473
572.40,20.24714
572.60,20.23951
572.80,20.23146
573.00,20.22274
573.20,20.20294
573.40,20.19572
573.60,20.18570
573.80,20.17774
574.00,20.17764
574.20,20.17456
574.40,20.17287
574.60,20.16317
574.80,20.15587
575.00,20.13796
575.20,20.13118
575.40,20.11238
575.60,20.10241
575.80,20.09510
576.00,20.09072
576.20,20.08400
576.40,20.07741
576.60,20.07154
576.80,20.05967
577.00,20.05060
577.20,20.04429
577.40,20.04025
577.60,20.03589
577.80,20.03140
578.00,20.02393
578.20,20.01649
578.40,20.00318
578.60,19.99461
578.80,19.98891
579.00,19.98722
579.20,19.98359
579.40,19.98820
579.60,19.98737
579.80,19.98287
580.00,19.97172
580.20,19.96593
580.40,19.95156
580.60,19.94325
580.80,19.94197
581.00,19.93956
581.20,19.92827
581.40,19.92511
581.60,19.92581
581.80,19.92103
582.00,19.91522
582.20,19.91203
582.40,19.91049
582.60,19.89693
582.80,19.88247
583.00,19.87847
583.20,19.87728
583.40,19.86926
583.60,19.86428
583.80,19.86594
584.00,19.85504
584.20,19.85243
584.40,19.85445
584.60,19.85677
584.80,19.84963
585.00,19.84356
585.20,19.82940
585.40,19.82602
585.60,19.81889
585.80,19.81581
586.00,19.82184
586.20,19.82984
586.40,19.83007
586.60,19.82538
586.80,19.82506
587.00,19.81654
587.20,19.81128
587.40,19.79944
587.60,19.80284
587.80,19.79739
588.00,19.79600
588.20,19.79448
588.40,19.79250
588.60,19.77938
588.80,19.77998
589.00,19.77523
589.20,19.76528
589.40,19.76761
589.60,19.76790
589.80,19.76891
590.00,19.77397
590.20,19.77939
590.40,19.77057
590.60,19.76647
590.80,19.76288
591.00,19.75266
591.20,19.73780
591.40,19.73772
591.60,19.73764
591.80,19.73324
592.00,19.73312
592.20,19.73116
592.40,19.72700
592.60,19.72394
592.80,19.71891
593.00,19.72098
593.20,19.71713
593.40,19.71616
593.60,19.71597
593.80,19.71777
594.00,19.72043
594.20,19.72880
594.40,19.72555
594.60,19.73700
594.80,19.73298
595.00,19.72557
595.20,19.72935
595.40,19.73120
595.60,19.71253
595.80,19.71294
596.00,19.70465
596.20,19.69024
596.40,19.68564
596.60,19.68663
596.80,19.68575
597.00,19.69160
597.20,19.69660
597.40,19.69870
597.60,19.70426
597.80,19.69988
598.00,19.68943
598.20,19.69060
598.40,19.69120
598.60,19.69081
598.80,19.68893
599.00,19.69247
599.20,19.68911
599.40,19.68503
599.60,19.68023
599.80,19.68342
600.00,19.68179
600.20,19.68196
600.40,19.67989
600.60,19.68056
600.80,19.67591
601.00,19.67645
601.20,19.67450
601.40,19.67597
601.60,19.67267
601.80,19.67618
602.00,19.68042
602.20,19.67946
602.40,19.68115
602.60,19.68558
602.80,19.68658
603.00,19.68522
603.20,19.68393
603.40,19.69110
603.60,19.69011
603.80,19.68704
604.00,19.68525
604.20,19.69317
604.40,19.69002
604.60,19.69273
604.80,19.69676
605.00,19.70206
605.20,19.69811
605.40,19.69404
605.60,19.69368
605.80,19.69646
606.00,19.69768
606.20,19.70279
606.40,19.70252
606.60,19.70728
606.80,19.71058
607.00,19.71830
607.20,19.71917
607.40,19.72026
607.60,19.71409
607.80,19.71290
608.00,19.70782
608.20,19.71620
608.40,19.72283
608.60,19.73290
608.80,19.73342
609.00,19.73497
609.20,19.72926
609.40,19.73179
609.60,19.73995
609.80,19.74723
610.00,19.74736
610.20,19.75531
610.40,19.75714
610.60,19.75373
610.80,19.75327
611.00,19.75787
611.20,19.76023
611.40,19.76765
611.60,19.77436
611.80,19.77974
612.00,19.78763
612.20,19.78742
612.40,19.79149
612.60,19.79556
612.80,19.80263
613.00,19.80685
613.20,19.81032
613.40,19.81111
613.60,19.81107
613.80,19.81347
614.00,19.81751
614.20,19.82574
614.40,19.82751
614.60,19.82959
614.80,19.83367
615.00,19.83203
615.20,19.83604
615.40,19.84209
615.60,19.84820
615.80,19.85457
616.00,19.86651
616.20,19.87258
616.40,19.88570
616.60,19.89230
616.80,19.89867
617.00,19.90263
617.20,19.90950
617.40,19.91057
617.60,19.91964
617.80,19.92150
618.00,19.93464
618.20,19.93927
618.40,19.94858
618.60,19.95832
618.80,19.96630
619.00,19.97248
619.20,19.98112
619.40,19.98547
619.60,19.99317
619.80,20.00286
620.00,20.00819
620.20,20.01467
620.40,20.02599
620.60,20.03529
620.80,20.04246
621.00,20.05067
621.20,20.06683
621.40,20.07691
621.60,20.08574
621.80,20.10280
622.00,20.11084
622.20,20.11628
622.40,20.12944
622.60,20.13762
622.80,20.14071
623.00,20.15337
623.20,20.16442
623.40,20.17013
623.60,20.18554
623.80,20.20469
624.00,20.22351
624.20,20.22635
624.40,20.23667
624.60,20.24663
624.80,20.25015
625.00,20.25716
625.20,20.27797
625.40,20.29332
625.60,20.29656
625.80,20.31179
626.00,20.32344
626.20,20.32864
626.40,20.33818
626.60,20.35594
626.80,20.36770
627.00,20.38277
627.20,20.39806
627.40,20.41520
627.60,20.43005
627.80,20.45036
628.00,20.46245
628.20,20.48339
628.40,20.49580
628.60,20.51767
628.80,20.52475
629.00,20.53843
629.20,20.55546
629.40,20.56315
629.60,20.56870
629.80,20.58751
630.00,20.60896
630.20,20.62388
630.40,20.65011
630.60,20.67163
630.80,20.68271
631.00,20.69423
631.20,20.70796
631.40,20.72784
631.60,20.74290
631.80,20.76549
632.00,20.77672
632.20,20.79685
632.40,20.81345
632.60,20.82061
632.80,20.83655
633.00,20.87290
633.20,20.88529
633.40,20.89971
633.60,20.92343
633.80,20.94036
634.00,20.94528
634.20,20.96408
634.40,20.98110
634.60,21.00269
634.80,21.03156
635.00,21.05429
635.20,21.07856
635.40,21.10957
635.60,21.13189
635.80,21.15017
636.00,21.16652
636.20,21.19143
636.40,21.20959
636.60,21.22722
636.80,21.24988
637.00,21.28426
637.20,21.31704
637.40,21.33405
637.60,21.36031
637.80,21.37948
638.00,21.38897
638.20,21.40066
638.40,21.43419
638.60,21.46874
638.80,21.49373
639.00,21.52960
639.20,21.55559
639.40,21.57357
639.60,21.59587
639.80,21.61654
640.00,21.64190
640.20,21.67006
640.40,21.69960
640.60,21.72010
640.80,21.75241
641.00,21.77981
641.20,21.81667
641.40,21.83901
641.60,21.86508
641.80,21.89565
642.00,21.91463
642.20,21.92664
642.40,21.96064
642.60,21.99692
642.80,22.02345
643.00,22.06304
643.20,22.09287
643.40,22.11553
643.60,22.13611
643.80,22.15918
644.00,22.18400
644.20,22.22046
644.40,22.24341
644.60,22.27333
644.80,22.30271
645.00,22.32655
645.20,22.35013
645.40,22.38786
645.60,22.42127
645.80,22.45721
646.00,22.48825
646.20,22.51806
646.40,22.54534
646.60,22.57188
646.80,22.59729
647.00,22.63319
647.20,22.66170
647.40,22.69477
647.60,22.72355
647.80,22.75577
648.00,22.77884
648.20,22.80724
648.40,22.83409
648.60,22.87082
648.80,22.90669
649.00,22.93695
649.20,22.96721
649.40,23.00222
649.60,23.02312
649.80,23.04987
650.00,23.08822
650.20,23.12335
650.40,23.14572
650.60,23.18617
650.80,23.22242
651.00,23.24885
651.20,23.27843
651.40,23.31979
651.60,23.34901
651.80,23.37594
652.00,23.39955
652.20,23.44548
652.40,23.47623
652.60,23.51847
652.80,23.55305
653.00,23.58952
653.20,23.61738
653.40,23.65772
653.60,23.68944
653.80,23.71655
654.00,23.76491
654.20,23.80107
654.40,23.83769
654.60,23.87128
654.80,23.91568
655.00,23.94552
655.20,23.97377
655.40,24.00119
655.60,24.03451
655.80,24.06323
656.00,24.09794
656.20,24.13892
656.40,24.17904
656.60,24.21770
656.80,24.25521
657.00,24.29393
657.20,24.32936
657.40,24.36339
657.60,24.40452
657.80,24.45633
658.00,24.49974
658.20,24.54477
658.40,24.58460
658.60,24.62339
658.80,24.64959
659.00,24.69385
659.20,24.73336
659.40,24.76988
659.60,24.80833
659.80,24.85318
660.00,24.89743
660.20,24.92801
660.40,24.98120
660.60,25.02060
660.80,25.06692
661.00,25.11264
661.20,25.16217
661.40,25.20037
661.60,25.24472
661.80,25.28372
662.00,25.32972
662.20,25.38269
662.40,25.43326
662.60,25.48575
662.80,25.54628
663.00,25.58687
663.20,25.62838
663.40,25.68517
663.60,25.74086
663.80,25.78666
664.00,25.83864
664.20,25.89426
664.40,25.93526
664.60,25.98879
664.80,26.04085
665.00,26.09235
665.20,26.15925
665.40,26.22598
665.60,26.28213
665.80,26.33894
666.00,26.38909
666.20,26.42168
666.40,26.46245
666.60,26.50869
666.80,26.56399
667.00,26.62873
667.20,26.68766
667.40,26.74944
667.60,26.79811
667.80,26.85162
668.00,26.89837
668.20,26.95707
668.40,27.00514
668.60,27.07886
668.80,27.14252
669.00,27.19779
669.20,27.26380
669.40,27.33501
669.60,27.40006
669.80,27.44932
670.00,27.52957
670.20,27.60599
670.40,27.67568
670.60,27.72271
670.80,27.78209
671.00,27.82294
671.20,27.87668
671.40,27.92413
671.60,27.99722
671.80,28.07924
672.00,28.15978
672.20,28.21433
672.40,28.28557
672.60,28.33473
672.80,28.38831
673.00,28.44967
673.20,28.53269
673.40,28.61324
673.60,28.69444
673.80,28.78802
674.00,28.86312
674.20,28.91584
674.40,28.97810
674.60,29.04609
674.80,29.09539
675.00,29.16366
675.20,29.25179
675.40,29.31845
675.60,29.39601
675.80,29.48192
676.00,29.56304
676.20,29.64196
676.40,29.72616
676.60,29.81882
676.80,29.89934
677.00,29.97627
677.20,30.05570
677.40,30.14431
677.60,30.20451
677.80,30.27376
678.00,30.36748
678.20,30.43982
678.40,30.51635
678.60,30.60451
678.80,30.68962
679.00,30.76090
679.20,30.84753
679.40,30.93208
679.60,31.02789
679.80,31.12233
680.00,31.20884
680.20,31.29370
680.40,31.38767
680.60,31.46138
680.80,31.53770
681.00,31.62494
681.20,31.72397
681.40,31.79177
681.60,31.87807
681.80,31.97262
682.00,32.06028
682.20,32.13252
682.40,32.22390
682.60,32.31205
682.80,32.38870
683.00,32.47628
683.20,32.57193
683.40,32.68257
683.60,32.78326
683.80,32.89807
684.00,32.99521
684.20,33.09601
684.40,33.18147
684.60,33.28738
684.80,33.38303
685.00,33.49165
685.20,33.58259
685.40,33.68241
685.60,33.75291
685.80,33.84966
686.00,33.92950
686.20,34.02013
686.40,34.11022
686.60,34.22161
686.80,34.29875
687.00,34.39032
687.20,34.48378
687.40,34.57336
687.60,34.64945
687.80,34.73171
688.00,34.82435
688.20,34.91176
688.40,35.00899
688.60,35.10385
688.80,35.19715
689.00,35.28717
689.20,35.38634
689.40,35.47223
689.60,35.57577
689.80,35.68861
690.00,35.78387
690.20,35.87223
690.40,35.97597
690.60,36.05701
690.80,36.14601
691.00,36.22870
691.20,36.31586
691.40,36.39699
691.60,36.48985
691.80,36.55851
692.00,36.65290
692.20,36.75065
692.40,36.82959
692.60,36.94104
692.80,37.04738
693.00,37.13537
693.20,37.20561
693.40,37.30921
693.60,37.38840
693.80,37.47227
694.00,37.54227
694.20,37.64568
694.40,37.71023
694.60,37.79209
694.80,37.86112
695.00,37.96519
695.20,38.05610
695.40,38.17398
695.60,38.26200
695.80,38.37189
696.00,38.45463
696.20,38.52992
696.40,38.59027
696.60,38.65937
696.80,38.72202
697.00,38.80129
697.20,38.86919
697.40,38.94179
697.60,39.02433
697.80,39.12319
698.00,39.22118
698.20,39.29856
698.40,39.39494
698.60,39.46308
698.80,39.54126
699.00,39.59988
699.20,39.69629
699.40,39.76090
699.60,39.81874
699.80,39.88588
700.00,39.97142
700.20,40.04722
700.40,40.12650
700.60,40.23426
700.80,40.30798
701.00,40.37457
701.20,40.42055
701.40,40.47962
701.60,40.56632
701.80,40.64872
702.00,40.72613
702.20,40.82121
702.40,40.89443
702.60,40.96055
702.80,41.03819
703.00,41.09492
703.20,41.16737
703.40,41.24802
703.60,41.30264
703.80,41.36747
704.00,41.44267
704.20,41.50999
704.40,41.58546
704.60,41.65813
704.80,41.71903
705.00,41.80097
705.20,41.87770
705.40,41.94131
705.60,42.02195
705.80,42.10736
706.00,42.16877
706.20,42.23338
706.40,42.29009
706.60,42.32791
706.80,42.38907
707.00,42.45604
707.20,42.52270
707.40,42.62279
707.60,42.66917
707.80,42.71201
708.00,42.75975
708.20,42.80623
708.40,42.82000
708.60,42.90980
708.80,42.97872
709.00,43.03976
709.20,43.08142
709.40,43.12695
709.60,43.19012
709.80,43.23530
710.00,43.28914
710.20,43.35971
710.40,43.42397
710.60,43.44521
710.80,43.48615
711.00,43.54993
711.20,43.60366
711.40,43.64636
711.60,43.72233
711.80,43.78698
712.00,43.80363
712.20,43.85685
712.40,43.91707
712.60,43.96000
712.80,44.01991
713.00,44.08642
713.20,44.13750
713.40,44.18091
713.60,44.24237
713.80,44.27373
714.00,44.32245
714.20,44.35294
714.40,44.42005
714.60,44.45733
714.80,44.52177
715.00,44.56282
715.20,44.56838
715.40,44.60516
715.60,44.65086
715.80,44.69433
716.00,44.73863
716.20,44.82178
716.40,44.84580
716.60,44.88511
716.80,44.88677
717.00,44.91576
717.20,44.95378
717.40,45.00075
717.60,45.02968
717.80,45.05182
718.00,45.09608
718.20,45.13019
718.40,45.19400
718.60,45.20811
718.80,45.27121
719.00,45.29447
719.20,45.31567
719.40,45.30251
719.60,45.33689
719.80,45.34746
720.00,45.37066
720.20,45.43379
720.40,45.50210
720.60,45.53922
720.80,45.59430
721.00,45.63764
721.20,45.63527
721.40,45.68066
721.60,45.72096
721.80,45.73795
722.00,45.77578
722.20,45.80545
722.40,45.79917
722.60,45.82424
722.80,45.85972
723.00,45.88412
723.20,45.92592
723.40,45.93530
723.60,45.97167
723.80,46.01144
724.00,46.07178
724.20,46.07477
724.40,46.09910
724.60,46.10621
724.80,46.09149
725.00,46.08274
725.20,46.10070
725.40,46.14576
725.60,46.18886
725.80,46.24867
726.00,46.27294
726.20,46.33403
726.40,46.37299
726.60,46.39691
726.80,46.40996
727.00,46.42448
727.20,46.44639
727.40,46.45964
727.60,46.47881
727.80,46.48626
728.00,46.50607
728.20,46.51484
728.40,46.53539
728.60,46.54036
728.80,46.56665
729.00,46.59946
729.20,46.61324
729.40,46.62961
729.60,46.65125
729.80,46.67927
730.00,46.70176
730.20,46.72330
730.40,46.72597
730.60,46.75960
730.80,46.77517
731.00,46.76989
731.20,46.80306
731.40,46.83257
731.60,46.83984
731.80,46.85064
732.00,46.85091
732.20,46.83965
732.40,46.83760
732.60,46.86252
732.80,46.88499
733.00,46.93283
733.20,46.95895
733.40,47.01405
733.60,47.01967
733.80,47.03049
734.00,47.03987
734.20,47.02345
734.40,47.00706
734.60,47.01647
734.80,47.02669
735.00,47.03553
735.20,47.06165
735.40,47.08222
735.60,47.07051
735.80,47.08794
736.00,47.05306
736.20,47.07091
736.40,47.10632
736.60,47.12768
736.80,47.10038
737.00,47.17240
737.20,47.19755
737.40,47.17081
737.60,47.19759
737.80,47.23160
738.00,47.23310
738.20,47.22500
738.40,47.23817
738.60,47.22471
738.80,47.25315
739.00,47.24257
739.20,47.27117
739.40,47.26992
739.60,47.30938
739.80,47.31684
740.00,47.33319
740.20,47.30916
740.40,47.31686
740.60,47.28812
740.80,47.28473
741.00,47.29557
741.20,47.34146
741.40,47.34715
741.60,47.38099
741.80,47.37048
742.00,47.40644
742.20,47.40632
742.40,47.43882
742.60,47.42396
742.80,47.44055
743.00,47.41369
743.20,47.40716
743.40,47.39497
743.60,47.41238
743.80,47.43505
744.00,47.42813
744.20,47.42766
744.40,47.44742
744.60,47.46329
744.80,47.46248
745.00,47.48380
745.20,47.51902
745.40,47.50459
745.60,47.46284
745.80,47.46779
746.00,47.49353
746.20,47.49395
746.40,47.49234
746.60,47.51341
746.80,47.51450
747.00,47.53133
747.20,47.52309
747.40,47.58595
747.60,47.62817
747.80,47.65018
748.00,47.60716
748.20,47.59849
748.40,47.54610
748.60,47.54752
748.80,47.50663
749.00,47.51948
749.20,47.54611
749.40,47.58118
749.60,47.56731
749.80,47.60391
750.00,47.61824
750.20,47.61344
750.40,47.63502
750.60,47.60648
750.80,47.60761
751.00,47.62933
751.20,47.63662
751.40,47.60421
751.60,47.65307
751.80,47.65114
752.00,47.62152
752.20,47.61190
752.40,47.60616
752.60,47.62132
752.80,47.65840
753.00,47.69664
753.20,47.69198
753.40,47.70915
753.60,47.70742
753.80,47.68372
754.00,47.68530
754.20,47.73995
754.40,47.78100
754.60,47.79357
754.80,47.79765
755.00,47.78723
755.20,47.77007
755.40,47.71737
755.60,47.69668
755.80,47.71096
756.00,47.69190
756.20,47.65211
756.40,47.71494
756.60,47.68850
756.80,47.70353
757.00,47.75655
757.20,47.81728
757.40,47.81221
757.60,47.83483
757.80,47.84437
758.00,47.83180
758.20,47.82891
758.40,47.79591
758.60,47.82220
758.80,47.79133
759.00,47.77412
759.20,47.73754
759.40,47.73836
759.60,47.75525
759.80,47.76847
760.00,47.85053
760.20,47.86351
760.40,47.91082
760.60,47.86326
760.80,47.86253
761.00,47.83497
761.20,47.84924
761.40,47.83030
761.60,47.85589
761.80,47.85380
762.00,47.82693
762.20,47.83505
762.40,47.83543
762.60,47.86704
762.80,47.90715
763.00,47.87559
763.20,47.85517
763.40,47.87139
763.60,47.87169
763.80,47.85185
764.00,47.89767
764.20,47.93801
764.40,47.95821
764.60,47.93922
764.80,47.95999
765.00,47.94571
765.20,47.93742
765.40,47.86869
765.60,47.86500
765.80,47.84073
766.00,47.82652
766.20,47.84116
766.40,47.88647
766.60,47.86498
766.80,47.85445
767.00,47.83641
767.20,47.82852
767.40,47.83647
767.60,47.85030
767.80,47.88742
768.00,47.91820
768.20,47.85350
768.40,47.80108
768.60,47.81181
768.80,47.77883
769.00,47.81272
769.20,47.84535
769.40,47.86764
769.60,47.89997
769.80,47.91099
770.00,47.88845
770.20,47.90099
770.40,47.92856
770.60,47.92066
770.80,47.96754
771.00,47.94905
771.20,47.94682
771.40,47.89406
771.60,47.89277
771.80,47.82023
772.00,47.84397
772.20,47.87051
772.40,47.90205
772.60,47.88889
772.80,47.91573
773.00,47.92350
773.20,47.88640
773.40,47.91186
773.60,47.95074
773.80,47.93915
774.00,47.94062
774.20,47.95246
774.40,47.95226
774.60,47.87163
774.80,47.88915
775.00,47.84852
775.20,47.85931
775.40,47.81334
775.60,47.84199
775.80,47.82794
776.00,47.87284
776.20,47.90061
776.40,47.94575
776.60,47.95730
776.80,47.99412
777.00,47.98878
777.20,48.00052
777.40,48.00640
777.60,48.01589
777.80,47.98740
778.00,47.96903
778.20,47.94082
778.40,47.90618
778.60,47.90755
778.80,47.90403
779.00,47.88902
779.20,47.90753
779.40,47.94569
779.60,47.98464
779.80,47.98055
780.00,48.00016
780.20,47.96989
780.40,47.95792
780.60,47.95628
780.80,47.97746
781.00,47.97588
781.20,47.99189
781.40,47.97181
781.60,47.90345
781.80,47.92661
782.00,47.95751
782.20,48.01122
782.40,48.00683
782.60,48.02849
782.80,48.02053
783.00,48.01424
783.20,47.94194
783.40,47.94459
783.60,47.96442
783.80,47.93098
784.00,47.90084
784.20,47.90151
784.40,47.98682
784.60,47.97490
784.80,47.98832
785.00,48.01445
785.20,48.02114
785.40,47.93926
785.60,47.90751
785.80,47.91318
786.00,47.93541
786.20,47.93080
786.40,47.93171
786.60,47.96124
786.80,47.97321
787.00,47.93475
787.20,47.95048
787.40,47.92561
787.60,47.94158
787.80,47.94857
788.00,47.97628
788.20,47.95091
788.40,47.96205
788.60,47.93533
788.80,47.89908
789.00,47.88610
789.20,47.90387
789.40,47.92078
789.60,47.93664
789.80,47.96001
790.00,47.97049
790.20,47.95713
790.40,48.01761
790.60,47.96823
790.80,47.94449
791.00,47.88645
791.20,47.91626
791.40,47.85194
791.60,47.90613
791.80,47.90828
792.00,47.96333
792.20,47.93795
792.40,47.95301
792.60,47.95381
792.80,47.95102
793.00,47.89384
793.20,47.91045
793.40,47.89056
793.60,47.84341
793.80,47.86970
794.00,47.86703
794.20,47.84109
794.40,47.84361
794.60,47.83814
794.80,47.75795
795.00,47.76159
795.20,47.72677
795.40,47.73465
795.60,47.74078
795.80,47.85676
796.00,47.87396
796.20,47.89296
796.40,47.88745
796.60,47.94751
796.80,47.92973
797.00,48.00520
797.20,48.02281
797.40,47.97784
797.60,47.95708
797.80,47.86334
798.00,47.77998
798.20,47.76402
798.40,47.76707
798.60,47.76084
798.80,47.78558
799.00,47.76130
799.20,47.73824
799.40,47.78267
799.60,47.70673
799.80,47.65834
800.00,47.62399
