λ (nm),α (cm^-1)
200.0,41744.60087735781
200.06,41886.73008563886
200.12,42028.859293919915
200.18,42170.98850220096
200.24,42313.117710482016
200.3,42455.24691876307
200.36,42597.376127044125
200.42,42739.50533532511
200.48,42881.63454360616
200.54,43023.763751887214
200.6,43165.89296016827
200.66,43308.022168449315
200.72,43450.15137673037
200.78,43592.28058501143
200.84,43734.40979329248
200.9,43876.53900157353
200.96,44018.668209854586
201.02,44146.607973640654
201.08,44246.16884843677
201.14,44345.72972323285
201.2,44445.290598028965
201.26,44544.85147282508
201.32,44644.412347621204
201.38,44743.97322241732
201.44,44843.53409721344
201.5,44943.09497200956
201.56,45042.65584680568
201.62,45142.216721601806
201.68,45241.77759639792
201.74,45341.338471194045
201.8,45440.89934599017
201.86,45540.46022078628
201.92,45640.02109558236
201.98,45739.58197037847
202.04,45794.18917507361
202.1,45826.31954471823
202.16,45858.449914362856
202.22,45890.580284007476
202.28,45922.7106536521
202.34,45954.84102329673
202.4,45986.97139294135
202.46,46019.101762585975
202.52,46051.2321322306
202.58,46083.36250187522
202.64,46115.49287151983
202.7,46147.62324116445
202.76,46179.75361080908
202.82,46211.8839804537
202.88,46244.014350098325
202.94,46276.14471974295
203.0,46308.27508938757
203.06,46272.89892090187
203.12,46237.52275241616
203.18,46202.14658393046
203.24,46166.77041544476
203.3,46131.394246959055
203.36,46096.018078473346
203.42,46060.641909987666
203.48,46025.265741501964
203.54,45989.88957301626
203.6,45954.51340453055
203.66,45919.13723604485
203.72,45883.76106755915
203.78,45848.38489907345
203.84,45813.00873058774
203.9,45777.63256210204
203.96,45742.256393616335
204.02,45690.99040266862
204.08,45607.94476679691
204.14,45524.89913092523
204.2,45441.85349505352
204.26,45358.80785918181
204.32,45275.7622233101
204.38,45192.71658743838
204.44,45109.67095156667
204.5,45026.62531569496
204.56,44943.57967982325
204.62,44860.53404395154
204.68,44777.48840807982
204.74,44694.44277220811
204.8,44611.3971363364
204.86,44528.35150046469
204.92,44445.305864593014
204.98,44362.2602287213
205.04,44266.90329233595
205.1,44165.390705693775
205.16,44063.878119051595
205.22,43962.36553240942
205.28,43860.852945767256
205.34,43759.34035912508
205.4,43657.8277724829
205.46,43556.31518584073
205.52,43454.802599198556
205.58,43353.290012556376
205.64,43251.77742591425
205.7,43150.26483927208
205.76,43048.7522526299
205.82,42947.23966598773
205.88,42845.727079345554
205.94,42744.21449270337
206.0,42642.7019060612
206.06,42550.9753233739
206.12,42459.248740686606
206.18,42367.52215799931
206.24,42275.795575312004
206.3,42184.06899262471
206.36,42092.34240993741
206.42,42000.615827250156
206.48,41908.88924456285
206.54,41817.162661875554
206.6,41725.436079188265
206.66,41633.70949650096
206.72,41541.98291381366
206.78,41450.25633112636
206.84,41358.52974843907
206.9,41266.803165751764
206.96,41175.07658306447
207.02,41093.11549190347
207.08,41030.68538379506
207.14,40968.255275686686
207.2,40905.825167578274
207.26,40843.39505946987
207.32,40780.96495136146
207.38,40718.53484325305
207.44,40656.10473514464
207.5,40593.674627036235
207.56,40531.244518927815
207.62,40468.8144108194
207.68,40406.384302711
207.74,40343.954194602586
207.8,40281.52408649418
207.86,40219.09397838577
207.92,40156.66387027739
207.98,40094.23376216899
208.04,40055.824365607165
208.1,40029.425324818636
208.16,40003.02628403013
208.22,39976.62724324161
208.28,39950.22820245308
208.34,39923.82916166456
208.4,39897.43012087605
208.46,39871.03108008752
208.52,39844.632039299
208.58,39818.23299851049
208.64,39791.83395772198
208.7,39765.43491693347
208.76,39739.035876144946
208.82,39712.636835356425
208.88,39686.2377945679
208.94,39659.83875377939
209.0,39633.43971299087
209.06,39638.38684363949
209.12,39643.33397428811
209.18,39648.28110493673
209.24,39653.22823558535
209.3,39658.175366233976
209.36,39663.12249688259
209.42,39668.069627531215
209.48,39673.01675817984
209.54,39677.96388882846
209.6,39682.91101947708
209.66,39687.8581501257
209.72,39692.80528077432
209.78,39697.752411422945
209.84,39702.69954207156
209.9,39707.64667272019
209.96,39712.59380336881
210.02,39724.52655114416
210.08,39750.43053317297
210.14,39776.334515201765
210.2,39802.23849723057
210.26,39828.14247925939
210.32,39854.04646128819
210.38,39879.950443317
210.44,39905.85442534582
210.5,39931.75840737462
210.56,39957.66238940343
210.62,39983.56637143224
210.68,40009.470353461045
210.74,40035.374335489854
210.8,40061.27831751867
210.86,40087.18229954748
210.92,40113.086281576274
210.98,40138.99026360508
211.04,40172.10987217034
211.1,40208.83729400384
211.16,40245.56471583733
211.22,40282.292137670825
211.28,40319.01955950432
211.34,40355.74698133782
211.4,40392.47440317131
211.46,40429.2018250048
211.52,40465.92924683829
211.58,40502.656668671785
211.64,40539.38409050527
211.7,40576.111512338764
211.76,40612.83893417225
211.82,40649.566356005744
211.88,40686.293777839244
211.94,40723.02119967274
212.0,40759.74862150623
212.06,40801.04685413724
212.12,40842.345086768255
212.18,40883.64331939926
212.24,40924.94155203028
212.3,40966.23978466129
212.36,41007.538017292296
212.42,41048.83624992329
212.48,41090.1344825543
212.54,41131.432715185314
212.6,41172.73094781632
212.66,41214.02918044734
212.72,41255.32741307835
212.78,41296.625645709355
212.84,41337.92387834036
212.9,41379.22211097138
212.96,41420.52034360239
213.02,41462.96058625423
213.08,41507.68484894773
213.14,41552.4091116412
213.2,41597.13337433469
213.26,41641.85763702819
213.32,41686.581899721685
213.38,41731.306162415174
213.44,41776.03042510867
213.5,41820.75468780217
213.56,41865.478950495664
213.62,41910.20321318916
213.68,41954.92747588265
213.74,41999.65173857615
213.8,42044.376001269644
213.86,42089.10026396313
213.92,42133.82452665661
213.98,42178.548789350105
214.04,42227.32175783642
214.1,42278.11907921914
214.16,42328.91640060186
214.22,42379.71372198459
214.28,42430.5110433673
214.34,42481.30836475003
214.4,42532.105686132745
214.46,42582.90300751547
214.52,42633.700328898194
214.58,42684.497650280915
214.64,42735.29497166362
214.7,42786.092293046335
214.76,42836.88961442906
214.82,42887.68693581178
214.88,42938.484257194505
214.94,42989.28157857722
215.0,43040.078899959946
215.06,43100.151681187686
215.12,43160.22446241542
215.18,43220.29724364315
215.24,43280.370024870885
215.3,43340.442806098625
215.36,43400.51558732636
215.42,43460.58836855406
215.48,43520.661149781794
215.54,43580.733931009534
215.6,43640.80671223727
215.66,43700.87949346501
215.72,43760.95227469274
215.78,43821.02505592047
215.84,43881.097837148205
215.9,43941.170618375945
215.96,44001.24339960368
216.02,44064.79872230141
216.07999999999998,44135.31912793908
216.14,44205.839533576785
216.2,44276.35993921449
216.26,44346.880344852194
216.32,44417.4007504899
216.38,44487.92115612761
216.44,44558.441561765314
216.5,44628.96196740302
216.56,44699.48237304073
216.62,44770.002778678434
216.68,44840.52318431614
216.74,44911.04358995385
216.8,44981.563995591554
216.86,45052.08440122925
216.92,45122.604806866926
216.98,45193.12521250463
217.04,45270.01408602647
217.1,45350.08719349038
217.16,45430.16030095428
217.22,45510.233408418186
217.28,45590.3065158821
217.34,45670.379623346
217.4,45750.452730809906
217.46,45830.52583827381
217.52,45910.59894573772
217.57999999999998,45990.67205320158
217.64,46070.7451606655
217.7,46150.818268129406
217.76,46230.8913755933
217.82,46310.96448305721
217.88,46391.037590521126
217.94,46471.11069798503
218.0,46551.183805448934
218.06,46639.421613856444
218.12,46727.659422263954
218.18,46815.89723067147
218.24,46904.13503907898
218.3,46992.37284748649
218.36,47080.61065589401
218.42,47168.848464301474
218.48,47257.086272708984
218.54,47345.3240811165
218.6,47433.56188952401
218.66,47521.79969793153
218.72,47610.03750633904
218.78,47698.27531474654
218.84,47786.51312315405
218.9,47874.75093156157
218.96,47962.98873996908
219.02,48053.65057107526
219.07999999999998,48149.16044757872
219.14,48244.67032408222
219.2,48340.18020058572
219.26,48435.69007708922
219.32,48531.19995359272
219.38,48626.70983009622
219.44,48722.21970659972
219.5,48817.72958310321
219.56,48913.239459606724
219.62,49008.74933611021
219.68,49104.25921261372
219.74,49199.76908911722
219.8,49295.278965620724
219.86,49390.78884212422
219.92,49486.29871862767
219.98,49581.80859513117
220.04,49681.8072096392
220.1,49784.05019314947
220.16,49886.293176659754
220.22,49988.536160170035
220.28,50090.77914368031
220.34,50193.02212719059
220.4,50295.265110700864
220.46,50397.50809421115
220.52,50499.75107772143
220.57999999999998,50601.99406123166
220.64,50704.23704474194
220.7,50806.48002825222
220.76,50908.72301176249
220.82,51010.96599527278
220.88,51113.208978783055
220.94,51215.45196229334
221.0,51317.69494580362
221.06,51426.786857621955
221.12,51535.8787694403
221.18,51644.97068125865
221.24,51754.06259307699
221.3,51863.154504895334
221.36,51972.24641671367
221.42,52081.33832853197
221.48,52190.43024035032
221.54,52299.522152168654
221.6,52408.614063987
221.66,52517.70597580535
221.72,52626.79788762369
221.78,52735.88979944203
221.84,52844.98171126037
221.9,52954.07362307872
221.96,53063.16553489707
222.02,53175.43484000682
222.07999999999998,53294.05893169932
222.14,53412.68302339188
222.2,53531.30711508443
222.26,53649.931206777
222.32,53768.55529846956
222.38,53887.17939016211
222.44,54005.80348185468
222.5,54124.42757354724
222.56,54243.05166523979
222.62,54361.67575693236
222.68,54480.29984862491
222.74,54598.92394031747
222.8,54717.54803201004
222.86,54836.17212370259
222.92,54954.7962153951
222.98,55073.420307087654
223.04,55203.466881506494
223.1,55339.22469728846
223.16,55474.982513070434
223.22,55610.740328852415
223.28,55746.49814463439
223.34,55882.25596041636
223.4,56018.01377619833
223.46,56153.77159198031
223.52,56289.52940776228
223.57999999999998,56425.28722354418
223.64,56561.04503932616
223.7,56696.80285510814
223.76,56832.56067089011
223.82,56968.31848667208
223.88,57104.07630245406
223.94,57239.83411823603
224.0,57375.591934018004
224.06,57541.68696765361
224.12,57707.78200128922
224.18,57873.87703492483
224.24,58039.972068560426
224.3,58206.06710219604
224.36,58372.16213583164
224.42,58538.25716946717
224.48,58704.35220310278
224.54,58870.447236738386
224.6,59036.54227037399
224.66,59202.63730400959
224.72,59368.732337645204
224.78,59534.827371280815
224.84,59700.92240491642
224.9,59867.01743855203
224.96,60033.112472187626
225.02,60215.132234199526
225.07999999999998,60429.00145296387
225.14,60642.87067172832
225.2,60856.73989049277
225.26,61070.609109257224
225.32,61284.47832802167
225.38,61498.34754678612
225.44,61712.21676555057
225.5,61926.085984315025
225.56,62139.95520307948
225.62,62353.82442184393
225.68,62567.69364060838
225.74,62781.562859372825
225.8,62995.43207813727
225.86,63209.30129690172
225.92,63423.17051566607
225.98,63637.03973443052
226.04,63896.00718941418
226.1,64177.52376250747
226.16,64459.04033560077
226.22,64740.55690869405
226.28,65022.073481787345
226.34,65303.59005488063
226.4,65585.10662797393
226.46,65866.62320106721
226.52,66148.1397741605
226.57999999999998,66429.65634725367
226.64,66711.17292034694
226.7,66992.68949344024
226.76,67274.20606653353
226.82,67555.72263962682
226.88,67837.23921272012
226.94,68118.7557858134
227.0,68400.27235890669
227.06,68770.85760682002
227.12,69141.44285473334
227.18,69512.02810264667
227.24,69882.61335056
227.3,70253.19859847332
227.36,70623.78384638664
227.42,70994.3690942998
227.48,71364.95434221312
227.54,71735.53959012644
227.6,72106.12483803977
227.66,72476.71008595309
227.72,72847.29533386642
227.78,73217.88058177974
227.84,73588.46582969307
227.9,73959.05107760639
227.96,74329.63632551972
228.02,74737.31827961304
228.07999999999998,75219.1936460661
228.14,75701.06901251935
228.2,76182.94437897262
228.26,76664.81974542589
228.32,77146.69511187916
228.38,77628.57047833242
228.44,78110.44584478569
228.5,78592.32121123896
228.56,79074.19657769223
228.62,79556.0719441455
228.68,80037.94731059877
228.74,80519.82267705204
228.8,81001.6980435053
228.86,81483.57340995857
228.92,81965.4487764116
228.98,82447.32414286488
229.04,83017.2621961087
229.1,83631.23159274783
229.16,84245.20098938697
229.22,84859.1703860261
229.28,85473.13978266522
229.34,86087.10917930435
229.4,86701.07857594348
229.46,87315.0479725826
229.52,87929.01736922175
229.57999999999998,88542.98676586058
229.64,89156.9561624997
229.7,89770.92555913884
229.76,90384.89495577796
229.82,90998.86435241709
229.88,91612.83374905623
229.94,92226.80314569536
230.0,92840.77254233448
230.06,93602.89951610997
230.12,94365.02648988547
230.18,95127.15346366096
230.24,95889.28043743646
230.3,96651.40741121194
230.36,97413.53438498743
230.42,98175.66135876256
230.48,98937.78833253805
230.54,99699.91530631356
230.6,100462.04228008905
230.66,101224.16925386453
230.72,101986.29622764002
230.78,102748.42320141551
230.84,103510.550175191
230.9,104272.6771489665
230.96,105034.804122742
231.02,105849.48334588003
231.07999999999998,106769.26706774268
231.14,107689.05078960572
231.2,108608.8345114688
231.26,109528.61823333187
231.32,110448.40195519493
231.38,111368.185677058
231.44,112287.96939892108
231.5,113207.75312078414
231.56,114127.53684264721
231.62,115047.32056451029
231.68,115967.10428637336
231.74,116886.8880082364
231.8,117806.67173009948
231.86,118726.45545196255
231.92,119646.23917382518
231.98,120566.02289568825
232.04,121594.03636495191
232.1,122676.16470791592
232.16,123758.2930508799
232.22,124840.42139384392
232.28,125922.54973680792
232.34,127004.67807977193
232.4,128086.80642273591
232.46,129168.93476569992
232.51999999999998,130251.06310866341
232.57999999999998,131333.1914516274
232.64,132415.3197945914
232.7,133497.44813755542
232.76,134579.5764805194
232.82,135661.70482348342
232.88,136743.8331664474
232.94,137825.96150941143
233.0,138908.08985237541
233.06,140157.18270357492
233.12,141406.27555477442
233.18,142655.36840597392
233.24,143904.46125717342
233.3,145153.5541083729
233.36,146402.6469595724
233.42000000000002,147651.7398107719
233.48,148900.83266197078
233.54,150149.92551317028
233.6,151399.01836436978
233.66,152648.11121556928
233.72,153897.20406676875
233.78,155146.29691796826
233.84,156395.38976916776
233.9,157644.48262036726
233.96,158893.57547156673
234.01999999999998,160201.58559326245
234.07999999999998,161627.4302559525
234.14,163053.27491864248
234.2,164479.11958133252
234.26,165904.96424402256
234.32,167330.8089067126
234.38,168756.65356940264
234.44,170182.49823209268
234.5,171608.34289478266
234.56,173034.1875574727
234.62,174460.03222016274
234.68,175885.87688285278
234.74,177311.72154554282
234.8,178737.56620823286
234.86,180163.4108709229
234.92000000000002,181589.25553361294
234.98,183015.1001963023
235.04,184571.31023996253
235.1,186192.702974108
235.16,187814.09570825342
235.22,189435.48844239887
235.28,191056.8811765443
235.34,192678.27391068975
235.4,194299.66664483518
235.46,195921.0593789806
235.51999999999998,197542.45211312527
235.57999999999998,199163.84484727072
235.64,200785.23758141615
235.7,202406.6303155616
235.76,204028.02304970703
235.82,205649.41578385246
235.88,207270.8085179979
235.94,208892.20125214336
236.0,210513.5939862888
236.06,212360.8856327445
236.12,214208.17727920017
236.18,216055.46892565588
236.24,217902.76057211155
236.3,219750.05221856726
236.36,221597.34386502297
236.42000000000002,223444.6355114786
236.48,225291.92715793345
236.54,227139.21880438915
236.6,228986.51045084483
236.66,230833.80209730053
236.72,232681.09374375624
236.78,234528.38539021192
236.84,236375.67703666762
236.9,238222.96868312333
236.96,240070.260329579
237.01999999999998,242007.39540720097
237.07999999999998,244124.2173471583
237.14,246241.03928711565
237.2,248357.86122707298
237.26,250474.68316703037
237.32,252591.5051069877
237.38,254708.32704694502
237.44,256825.1489869024
237.5,258941.97092685974
237.56,261058.7928668171
237.62,263175.6148067745
237.68,265292.4367467318
237.74,267409.25868668914
237.8,269526.08062664646
237.86,271642.90256660385
237.92000000000002,273759.7245065612
237.98,275876.5464465176
238.04,278210.9834536409
238.1,280654.2279943473
238.16,283097.47253505373
238.22,285540.7170757601
238.28,287983.9616164665
238.34,290427.206157173
238.4,292870.45069787937
238.46,295313.6952385858
238.51999999999998,297756.93977929105
238.57999999999998,300200.1843199975
238.64,302643.4288607039
238.7,305086.6734014103
238.76,307529.91794211674
238.82,309973.1624828231
238.88,312416.4070235296
238.94,314859.65156423603
239.0,317302.8961049424
239.06,320139.9552315363
239.12,322977.01435813017
239.18,325814.07348472404
239.24,328651.13261131785
239.3,331488.1917379117
239.36,334325.2508645056
239.42000000000002,337162.30999109946
239.48,339999.36911769194
239.54,342836.42824428587
239.6,345673.48737087974
239.66,348510.5464974736
239.72,351347.6056240675
239.78,354184.66475066135
239.84,357021.7238772552
239.9,359858.78300384904
239.96,362695.8421304429
240.01999999999998,365688.580090735
240.07999999999998,368992.67571842804
240.14,372296.771346121
240.2,375600.866973814
240.26,378904.96260150697
240.32,382209.0582291999
240.38,385513.1538568929
240.44,388817.2494845859
240.5,392121.3451122789
240.56,395425.4407399718
240.62,398729.5363676648
240.68,402033.6319953578
240.74,405337.72762305074
240.8,408641.82325074374
240.86,411945.9188784368
240.92000000000002,415250.0145061297
240.98,418554.11013382114
241.04,422219.2234619245
241.1,426064.84564023325
241.16,429910.46781854203
241.22,433756.0899968508
241.28,437601.7121751596
241.34,441447.3343534683
241.4,445292.9565317771
241.46,449138.5787100859
241.51999999999998,452984.20088839275
241.57999999999998,456829.82306670153
241.64,460675.44524501025
241.7,464521.06742331904
241.76,468366.6896016278
241.82,472212.3117799365
241.88,476057.93395824527
241.94,479903.55613655405
242.0,483749.1783148628
242.06,488209.5485751059
242.12,492669.91883534903
242.18,497130.2890955921
242.24,501590.65935583523
242.3,506051.02961607836
242.36,510511.39987632143
242.42000000000002,514971.77013656456
242.48,519432.14039680554
242.54,523892.5106570486
242.6,528352.8809172917
242.66,532813.2511775348
242.72,537273.621437778
242.78,541733.9916980211
242.84,546194.3619582641
242.9,550654.7322185073
242.96,555115.1024787504
243.01999999999998,559804.9388823538
243.07999999999998,564953.707572685
243.14,570102.476263016
243.2,575251.2449533471
243.26,580400.0136436782
243.32,585548.7823340093
243.38,590697.5510243404
243.44,595846.3197146716
243.5,600995.0884050026
243.56,606143.8570953337
243.62,611292.6257856649
243.68,616441.3944759959
243.74,621590.163166327
243.8,626738.9318566581
243.86,631887.7005469892
243.92000000000002,637036.4692373204
243.98,642185.2379276489
244.04,647848.2781484758
244.1,653768.4541345506
244.16,659688.6301206255
244.22,665608.8061067003
244.28,671528.9820927752
244.34,677449.15807885
244.4,683369.3340649249
244.46,689289.5100509997
244.51999999999998,695209.6860370717
244.57999999999998,701129.8620231466
244.64,707050.0380092213
244.7,712970.2139952962
244.76,718890.389981371
244.82,724810.5659674458
244.88,730730.7419535207
244.94,736650.9179395955
245.0,742571.0939256704
245.06,749372.073165605
245.12,756173.0524055394
245.18,762974.0316454741
245.24,769775.0108854087
245.3,776575.9901253433
245.36,783376.9693652778
245.42000000000002,790177.9486052124
245.48,796978.9278451437
245.54,803779.9070850783
245.6,810580.886325013
245.66,817381.8655649476
245.72,824182.8448048822
245.78,830983.8240448167
245.84,837784.8032847513
245.9,844585.7825246858
245.96,851386.7617646205
246.01999999999998,858532.8585740562
246.07999999999998,866369.1905225047
246.14,874205.5224709533
246.2,882041.854419402
246.26,889878.1863678505
246.32,897714.5183162991
246.38,905550.8502647477
246.44,913387.1822131963
246.5,921223.5141616449
246.56,929059.8461100935
246.62,936896.1780585421
246.68,944732.5100069907
